    217.714310    371.995789    640.761047    954.955383    629.000000    226.796600    438.825195    812.918640   1254.200684    893.000000    107.044609    252.894150    521.867310    865.914368    664.000000      0.000000      0.000000      0.000000      0.000000      0.000000      0.000000     20.828892     97.865982     30.375212    220.194382     39.193333    984.180176     66.653763  -1344.873047     59.745441  -1154.753784     43.090076   -930.277710      0.000000      0.000000      0.000000      0.000000      0.000000      0.000000      1.000000 'a_000001a'
     38.176449     99.655991    250.506546    241.880280    131.000000    -34.140923     -1.692167     98.159645    121.959602    141.000000   -111.521049   -146.345184   -148.457977    -71.241333     68.000000      0.000000      0.000000      0.000000      0.000000      0.000000      0.000000     48.315319    907.823730     50.772415   1828.701172     53.738850   2051.825684     57.549213  -2147.379639     55.227585  -2060.416016     52.261150   -868.636230      0.000000      0.000000      0.000000      0.000000      0.000000      0.000000      1.000000 'a_000002a'
     59.284416     48.122295     -4.000000   -141.000000    -66.995369     81.754417     95.857712     29.000000   -224.000000   -123.097946     14.006386     19.586788   -122.000000   -415.000000   -246.329971     75.519394   -825.382263      0.000000      0.000000      0.000000      0.000000      0.000000      0.000000      5.694375     32.859741     31.581873    520.958313      0.000000      0.000000     10.115087    -87.395576     48.418129   -918.015747      0.000000      0.000000      4.489276     51.859741      0.000000      0.000000      1.000000 'a_000003a'
    107.000000    117.000000    156.000000    244.549789     57.387115     78.000000     97.000000    112.000000    109.017044   -102.907951     58.000000     83.000000    107.000000    112.835159    -67.635056     31.172373   -155.042725     27.927082   -112.105896     21.944468    -28.156960      5.324516     57.942486     17.775824    304.557678     37.663040    842.937683     51.418198   -945.942383     43.960270   -757.217590     29.696287   -501.949921      0.000000      0.000000      0.000000      0.000000      0.000000      0.000000      1.000000 'a_000004a'
    130.852951    221.994034    365.613159    444.362610    313.480194    134.452026    235.014084    336.739410    361.067871    225.109940    148.163864    244.916367    336.542145    332.307922    185.910324      0.000000      0.000000      0.000000      0.000000      0.000000      0.000000     14.340702     42.986038     18.948107     65.309525     48.584492    591.790100     69.328072  -1231.165894     69.051895  -1268.877808     39.415508  -1120.209961      0.000000      0.000000      0.000000      0.000000      0.000000      0.000000      1.000000 'a_000006a'
     86.338333    113.206093    126.000000    -89.132904   -377.630249     39.557190     48.340897     -4.000000   -276.549957   -448.658112    -14.019961    -31.183279   -107.000000   -367.411255   -406.926086     77.997765  -1962.576660     68.491196  -1493.167114      0.000000      0.000000      0.000000      0.000000      0.000000      0.000000     17.476191     73.198868      0.000000      0.000000      0.000000      0.000000     57.737122  -1186.976685      0.000000      0.000000      0.000000      0.000000      0.000000      0.000000      1.000000 'a_000008a'
     15.203143     31.859606     48.000000     37.742664     17.312338    -14.104413     -9.328559      0.000000    -21.328976     -5.328659    -39.170322    -49.086197    -34.000000    -58.458530     35.166821      0.000000      0.000000      0.000000      0.000000      0.000000      0.000000     33.064789    589.175781     41.174667    798.935852     50.886333   1420.066772     38.935211   -735.432129     30.825333   -350.175171     21.113667   -224.832214      0.000000      0.000000      0.000000      0.000000      0.000000      0.000000      1.000000 'a_000010a'
    194.198410    268.000000    383.247864    501.942017    333.895233    160.991974    229.000000    338.184418    454.515015    293.936523     82.514870    156.000000    260.195709    381.934265    258.771057      0.000000      0.000000     90.916824  -1377.003662     23.376358    -60.866467     17.453892     20.373226      0.000000      0.000000     34.934910    224.459473     85.058006  -1681.787598      0.000000      0.000000     51.661999   -831.421204      0.000000      0.000000      0.000000      0.000000      0.000000      0.000000      1.000000 'a_000011a'
    160.501129    200.000000    209.000000    135.533371    -32.515572    181.649719    214.000000    209.000000    106.426598    -55.325726    128.217697    161.000000    131.000000     44.413349    -55.415779     88.256523  -1163.964844     87.202003  -1009.212097     66.878845   -403.621094      0.000000      0.000000      0.000000      0.000000      0.000000      0.000000      0.000000      0.000000      0.000000      0.000000      0.000000      0.000000      0.000000      0.000000      0.000000      0.000000      0.000000      0.000000      1.000000 'a_000013a'
    212.345734    285.028503    395.000000    352.190247      4.990336    194.834534    267.488190    341.000000    248.544083    -61.194756    181.022293    245.348679    302.000000    208.716141    -44.636913     76.895439  -2376.334473     82.009338  -1846.406616     74.379379   -911.415710      0.000000      0.000000      0.000000      0.000000      0.000000      0.000000      0.000000      0.000000      0.000000      0.000000      0.000000      0.000000      0.000000      0.000000      0.000000      0.000000      0.000000      0.000000      1.000000 'a_000014a'
    107.683014    136.320633     99.355049   -152.477264   -390.000000     20.644291     28.862114     27.659227    -40.268841   -107.000000     -2.383088      0.650055    -10.226952    -29.243179    -34.000000     96.734406   -938.236084      0.000000      0.000000      0.000000      0.000000      0.000000      0.000000     42.280231    692.869690     41.997452    929.797241      0.000000      0.000000     53.656025   -929.566162     50.048874   -591.766174      0.000000      0.000000      0.000000      0.000000      0.000000      0.000000      1.000000 'a_000015a'
      9.000000     42.863338     45.031490    -56.728146   -143.007904    -68.000000    -72.675636    -94.997871   -117.810257   -108.171165    -48.000000    -58.136063    -77.399979    -91.958572    -86.041100      0.000000      0.000000      0.000000      0.000000      0.000000      0.000000     13.711982     39.118515     54.400311    722.562134     51.519482   1112.433350     76.219292   -527.402893     23.485184   -363.890106     23.338676   -279.725555      0.000000      0.000000      0.000000      0.000000      0.000000      0.000000      1.000000 'a_000017a'
    105.014954    180.626709    249.000000    292.206787    214.136414     71.912537    136.310883    224.000000    293.563385    276.129364     40.165337    104.782043    185.000000    311.810181    326.100189     76.000000  -1820.611206     72.065186  -1378.130615     12.439258    -52.725311      0.000000      0.000000      0.000000      0.000000     11.033684    144.657181      0.000000      0.000000      0.000000      0.000000     29.195551   -452.196320      0.000000      0.000000      0.000000      0.000000      6.732684     38.169521      1.000000 'a_000022a'
    249.005646    334.360504    544.832642    832.414673    414.606201    210.883499    267.148682    404.410522    586.974304    379.406067    194.944824    241.914993    330.165009    452.788696    353.615662      0.000000      0.000000      0.000000      0.000000      0.000000      0.000000     15.030767    407.004028     18.612762    335.921997     20.505724    285.243683     57.369118  -4482.541504     55.717880  -3377.877930     51.448906  -2062.756348      0.000000      0.000000      0.000000      0.000000      0.000000      0.000000      1.000000 'a_000023a'
    133.801544    187.739807    209.000000    185.876205    134.867935    105.551132    160.901077    185.000000    176.087219    164.622223      8.972289     39.557190     43.000000     83.642769    135.938629     60.218048  -1102.925537     55.664005   -668.019775     20.228722    -77.834198      0.000000      0.000000      5.001920     33.980236     46.357906    407.442780      0.000000      0.000000     14.504340    -92.094604     10.614376   -171.877945      0.000000      0.000000      0.000000      0.000000      0.000000      0.000000      1.000000 'a_000024a'
     44.522663    135.993683    302.000000    544.264099    631.808044   -102.263039   -107.333511    -53.000000     36.780815    133.104507   -125.725433   -160.589874   -175.000000   -158.013489    -58.209061      0.000000      0.000000      0.000000      0.000000      0.000000      0.000000     48.163368   1315.876343     54.186684   2107.177979     67.901184   1766.090210     53.836632  -2183.367920     43.818466   -668.301636     34.098812   -213.610687      0.000000      0.000000      0.000000      0.000000      0.000000      0.000000      1.000000 'a_000025a'
    668.000000    726.664795    693.000000    444.018555    -35.830894    556.000000    604.149414    590.000000    381.023468    -61.635845    439.000000    488.377930    483.000000    324.444183    -42.832085     74.603134  -1980.468750     72.326981  -1149.203369     72.061066   -516.419678      0.000000      0.000000      0.000000      0.000000      0.000000      0.000000      0.000000      0.000000      0.000000      0.000000      0.000000      0.000000      0.000000      0.000000      0.000000      0.000000      0.000000      0.000000      1.000000 'a_000026a'
     72.782059     82.622604     92.007858     49.307072    -70.559212     82.373207    106.059143    140.314590    109.403915    -50.975784     52.624313     61.718994     75.512527     15.713101   -112.113976     72.809395  -1026.996582     78.387924  -1049.075317     82.000000   -252.513519      0.000000      0.000000      0.000000      0.000000      0.000000      0.000000      0.000000      0.000000      0.000000      0.000000      0.000000      0.000000      0.000000      0.000000      0.000000      0.000000      0.000000      0.000000      1.000000 'a_000028a'
    161.820221    246.622543    378.377655    473.150269    229.000000    191.209427    283.570862    440.772278    571.523865    375.000000     93.195686    138.911697    227.888870    317.494080    253.000000     74.985725  -1896.678345      0.000000      0.000000      0.000000      0.000000      0.000000      0.000000     12.714526     45.332008     43.066082    317.614532      0.000000      0.000000     69.678635  -1437.273193     33.298908   -520.180969      0.000000      0.000000      0.000000      0.000000      0.000000      0.000000      1.000000 'a_000029a'
    161.987656    241.471756    377.024231    405.000000    151.000000     94.274765    161.825470    275.202972    356.000000    219.000000     33.516582     83.122932    170.762405    278.000000    219.000000      0.000000      0.000000      0.000000      0.000000      0.000000      0.000000     18.701366    188.052185     24.343800    301.275238     51.265770    462.910004     71.469788  -2365.731445     69.656197  -1484.291992     42.734230   -465.801544      0.000000      0.000000      0.000000      0.000000      0.000000      0.000000      1.000000 'a_000030a'
    146.168839    194.376022    254.587509     -5.778432   -224.919052     74.049576     87.392426    -29.951982   -577.731567   -590.863586    -28.726191    -60.385616   -226.913239   -748.778259   -687.157715    103.165405  -1092.095825    112.000000  -1035.470093     41.178459   -274.503448      0.000000      0.000000      0.000000      0.000000     16.026142    331.568878      0.000000      0.000000      0.000000      0.000000     54.795399   -698.431091      0.000000      0.000000      0.000000      0.000000      0.000000      0.000000      1.000000 'a_000032a'
     85.976166    126.485085    214.000000    176.178528   -112.309273     81.906601    131.255386    200.000000    152.369934   -112.636620     52.025799     92.440849    126.000000     82.001976    -48.599514      0.000000      0.000000      0.000000      0.000000      0.000000      0.000000     18.579100     53.807804     24.202789    106.600990     56.727215    305.193726     69.420898  -1575.393799     63.797211  -1019.904297     27.675751   -504.873352      0.000000      0.000000      0.000000      0.000000      0.000000      0.000000      1.000000 'a_000035a'
    179.010178    280.076355    462.818970    611.722900    448.019958     72.205055    130.663757    218.380569    329.925568    330.428894    -16.462713     27.303154     43.230717    132.712692    235.933243      0.000000      0.000000      0.000000      0.000000      0.000000      0.000000     23.788076    252.102020     32.978954    312.700958     47.767303    479.546753     75.627625  -1871.206665     70.946320  -1381.417725     56.709915  -1158.798950      0.000000      0.000000      0.000000      0.000000      0.000000      0.000000      1.000000 'a_000036a'
     63.120037    110.168556    180.000000    260.109619    159.924088     52.554672     81.015907    126.000000    190.647644    128.764648     38.604858     57.531986    102.000000    180.647842    205.752304      0.000000      0.000000      0.000000      0.000000      0.000000      0.000000     35.178223    409.916168     41.392143    792.195801     46.076984   1000.737000     38.773106  -1337.504883     34.607857   -945.681335     25.797880   -335.080444      0.000000      0.000000      0.000000      0.000000      0.000000      0.000000      1.000000 'a_000038a'
    156.168777    183.067856    229.000000    333.102783    215.513748    136.165176    167.835587    209.000000    284.441376    148.612946      7.875529     18.515965     39.000000     88.052650     64.611946     72.199333  -1904.986328     78.000000  -2036.216431      0.000000      0.000000      0.000000      0.000000      0.000000      0.000000     32.191139    873.856018      0.000000      0.000000      0.000000      0.000000     36.348717  -1091.286987      0.000000      0.000000      0.000000      0.000000      0.000000      0.000000      1.000000 'a_000041a'
    273.360443    359.095551    537.048340    717.000000    467.723236    348.198822    450.863892    637.648621    805.000000    521.720825    313.725525    400.801025    535.961731    639.000000    420.002411     21.571846    -54.052616     19.968037    -79.943871     19.850691    -80.706268      8.043249     44.661480      6.847670     34.146076     24.298309    375.824890     50.292175  -1274.650146     49.961567  -1431.448608     35.617535   -786.697449      0.000000      0.000000      0.000000      0.000000      0.000000      0.000000      1.000000 'a_000042a'
    329.387238    371.000000    445.306061    513.631897    392.366791    360.980774    415.000000    480.892059    514.908447    363.444031    258.964630    312.000000    365.180237    391.054504    256.172729     76.370438  -2030.017822     75.523964  -1317.689941     58.572075   -663.991028      0.000000      0.000000      0.000000      0.000000      0.000000      0.000000      0.000000      0.000000      0.000000      0.000000      0.000000      0.000000      0.000000      0.000000      0.000000      0.000000      0.000000      0.000000      1.000000 'a_000044a'
     23.995140     21.493917      9.519788    -53.000000   -113.938232    -19.102278    -28.957907    -66.364624   -185.000000   -261.307098    -62.654861    -83.657127   -115.734627   -214.000000   -242.469086     87.945503   -509.118042     16.099512    -47.243359      0.000000      0.000000      0.000000      0.000000     33.668892    234.331894     55.488091    895.606384      0.000000      0.000000     38.145180   -331.970978     34.511909   -283.223480      0.000000      0.000000      0.000000      0.000000      0.000000      0.000000      1.000000 'a_000045a'
     77.426361    146.276154    214.000000    157.739471     90.549614     82.470940    167.781265    273.000000    211.314285    163.870178     49.155144    126.447029    244.000000    209.978302    184.747192     56.924725   -894.172180      0.000000      0.000000      0.000000      0.000000      0.000000      0.000000     13.854791     98.392006     25.738510    215.705933      0.000000      0.000000     57.328091   -922.338867     44.036015   -732.266663      0.000000      0.000000      0.000000      0.000000      0.000000      0.000000      1.000000 'a_000047a'
    146.000000    193.036331    339.396606    500.462311    159.797729    146.000000    169.559662    257.537140    152.119461   -280.213776    136.000000    162.502289    220.734283     59.759666   -320.864746      0.000000      0.000000      0.000000      0.000000      0.000000      0.000000     12.196795     49.424324      8.301467     28.352974      7.652228     22.669512     76.409477  -1874.292358     85.203171  -2284.656738     87.510048  -2128.084229      0.000000      0.000000      0.000000      0.000000      0.000000      0.000000      1.000000 'a_000049a'
    302.443420    331.234985    366.538086    371.000000    229.756409    399.718109    440.859070    488.841858    488.000000    299.170013    360.855927    399.507111    441.288422    439.000000    264.082397     76.124481  -1445.820557     69.864708  -1722.803223     64.750443  -1283.101807      0.000000      0.000000      0.000000      0.000000      0.000000      0.000000      0.000000      0.000000      0.000000      0.000000      0.000000      0.000000      0.000000      0.000000      0.000000      0.000000      0.000000      0.000000      1.000000 'a_000050a'
    139.614456    184.260483    268.000000    380.000000     95.601006     92.871002    121.504723    180.000000    263.000000     68.273361     24.302441     33.182632     73.000000    166.000000    143.339676     86.628876  -1703.348145     84.138817   -960.856079     21.259760    -78.800987      0.000000      0.000000      0.000000      0.000000     55.762074    348.630951      0.000000      0.000000      0.000000      0.000000      7.175253    -41.192944      0.000000      0.000000      0.000000      0.000000      0.000000      0.000000      1.000000 'a_000051a'
     86.438721    104.252846    141.000000    219.811996    195.408829     69.134766     92.709702    131.000000    205.042725    211.022339     28.565718     43.387241     73.000000    127.435692    169.187592     77.219582  -1310.843750     79.921555  -1122.863770      0.000000      0.000000      0.000000      0.000000      0.000000      0.000000     20.868093     83.547249      0.000000      0.000000      0.000000      0.000000     49.515575   -400.056732      0.000000      0.000000      0.000000      0.000000      0.000000      0.000000      1.000000 'a_000052a'
    191.050003    233.940567    345.365509    501.617828    522.000000    170.954926    211.296295    287.743469    344.831207    317.000000     86.696602    112.647713    130.996277     98.565338     53.000000     87.104141  -1840.937134     86.786072  -1721.729492      0.000000      0.000000      0.000000      0.000000      0.000000      0.000000     18.549753     45.124317      0.000000      0.000000      0.000000      0.000000     65.844795  -1197.970947      0.000000      0.000000      0.000000      0.000000      0.000000      0.000000      1.000000 'a_000053a'
     89.665192     82.658638   -131.328796   -202.576126   -117.000000     63.016064     42.759876   -153.485321   -207.190994   -112.000000     42.857113     58.011051    -13.816290    -56.653355    -19.000000     89.759491  -1107.864502     89.038223   -690.130188     89.141930   -447.411346      0.000000      0.000000      0.000000      0.000000      0.000000      0.000000      0.000000      0.000000      0.000000      0.000000      0.000000      0.000000      0.000000      0.000000      0.000000      0.000000      0.000000      0.000000      1.000000 'a_000054a'
    102.415878    122.053574    151.058945     73.950790     28.835445     87.024437    118.181641    150.509048     85.537773     29.365652     33.429600     53.758183     83.120384     36.266594     -9.767540     85.953712  -1511.111084     78.804955  -1009.896729      0.000000      0.000000      0.000000      0.000000      0.000000      0.000000     53.220600    416.133240      0.000000      0.000000      0.000000      0.000000     39.983082   -627.375793      0.000000      0.000000      0.000000      0.000000      0.000000      0.000000      1.000000 'a_000056a'
    280.264008    342.924133    354.364227    -19.000000   -297.000000    225.913132    283.799438    240.349609   -356.000000   -688.000000    116.208275    165.570435    111.875862   -385.000000   -678.000000     83.789604  -1838.910156     20.015951    -20.686607      0.000000      0.000000      0.000000      0.000000     12.158731    196.010757     46.635414    885.597900      0.000000      0.000000     61.253098  -1424.942383     45.358852  -1078.319702      0.000000      0.000000      0.000000      0.000000      0.000000      0.000000      1.000000 'a_000057a'
     -8.392937      9.000000     78.000000    162.769119    -14.979062     -4.235360     -4.000000     29.000000     -2.326222   -175.191055    -18.973356    -29.000000    -14.000000    -83.684166   -227.553177      0.000000      0.000000      0.000000      0.000000      0.000000      0.000000     48.745808    779.965942     52.073948   1190.521606     35.841843   1502.831055     49.254192  -1214.825317     45.926052  -1109.621216     44.682430   -694.773865      0.000000      0.000000      0.000000      0.000000      0.000000      0.000000      1.000000 'a_000059a'
     86.865410    140.960098    194.488510     36.891502   -251.592453     47.402641     96.802376    121.835968    -38.065094   -221.951996     18.247446     45.519806     58.403965    -74.073242   -162.811981     84.046883  -1015.551208     85.963661   -797.386230     32.377415   -244.162537      0.000000      0.000000      0.000000      0.000000     18.174246    270.686218      0.000000      0.000000      0.000000      0.000000     37.448341   -431.494537      0.000000      0.000000      0.000000      0.000000      0.000000      0.000000      1.000000 'a_000061a'
     94.683281    140.353378    224.025146    261.013580     31.605684     50.743969     82.427002    128.550949    149.551666      6.834120      9.020974     24.457565     45.377148     46.189583    -19.024012     80.687607  -1639.312256      0.000000      0.000000      0.000000      0.000000      0.000000      0.000000     22.126825     61.142361     29.766703    280.198456      0.000000      0.000000     57.391693  -1311.715698     51.072617   -692.805908      0.000000      0.000000      0.000000      0.000000      0.000000      0.000000      1.000000 'a_000063a'
    122.000000    173.557098    246.988449    348.270660    321.487518    107.000000    154.872620    227.278519    336.385559    338.780609     83.000000    129.439056    181.775223    264.772583    261.666290     82.861107  -1807.878784     91.941422  -2200.787109     94.000000  -2012.123413      0.000000      0.000000      0.000000      0.000000      0.000000      0.000000      0.000000      0.000000      0.000000      0.000000      0.000000      0.000000      0.000000      0.000000      0.000000      0.000000      0.000000      0.000000      1.000000 'a_000066a'
     34.039829      2.974843   -312.000000   -852.505127   -530.002319     21.772638    -11.819819   -346.000000   -935.704712   -611.189331      7.875529    -16.610174   -297.000000   -766.411621   -532.146179      0.000000      0.000000      0.000000      0.000000      0.000000      0.000000     39.893295    448.730011     43.735096    767.881287     45.484657    851.043152     60.106705  -1654.309814     56.264904  -1591.135620     54.515343  -1084.395630      0.000000      0.000000      0.000000      0.000000      0.000000      0.000000      1.000000 'a_000067a'
    130.747223    153.456573    156.000000    -53.372257   -210.518219    145.247925    169.821182    156.000000    -94.302429   -270.062042    136.835022    163.453735    117.000000   -246.380783   -439.588074     68.175667  -1493.331787     75.342270  -1788.762329     76.343346  -1667.739868      0.000000      0.000000      0.000000      0.000000      0.000000      0.000000      0.000000      0.000000      0.000000      0.000000      0.000000      0.000000      0.000000      0.000000      0.000000      0.000000      0.000000      0.000000      1.000000 'a_000068a'
     20.047678     40.723335    117.316261    259.504669    206.098633    -23.975435     -8.481452     42.447742    193.292953    221.496796    -33.993114    -33.956493    -18.723333     52.980843     87.449181     16.886982    -62.346233      0.000000      0.000000      0.000000      0.000000     27.991447    474.974823     45.786400   1434.635742     45.718227   1307.055908     37.121571  -1048.346191     34.286003   -947.005005     32.650017   -503.725891      0.000000      0.000000      0.000000      0.000000      0.000000      0.000000      1.000000 'a_000070a'
     78.466362    118.202965    164.071014     53.000000   -327.795380    -19.150116    -13.996038    -31.498617   -224.000000   -490.012848    -86.214310    -96.061974   -143.687943   -317.000000   -459.278717     85.668739  -1391.028809      0.000000      0.000000      0.000000      0.000000      0.000000      0.000000     33.024391    203.623917     54.430897    686.228516      0.000000      0.000000     58.975609   -787.176331     37.569103   -678.614319      0.000000      0.000000      0.000000      0.000000      0.000000      0.000000      1.000000 'a_000072a'
    214.000000    287.699738    316.329498     28.045322   -120.227722    200.000000    274.056000    288.849396    -51.548088   -181.518021    122.000000    191.046921    187.753937   -158.195877   -296.346619     72.489548  -2644.921387     73.024712  -2031.163330     78.068756   -854.491333      0.000000      0.000000      0.000000      0.000000      0.000000      0.000000      0.000000      0.000000      0.000000      0.000000      0.000000      0.000000      0.000000      0.000000      0.000000      0.000000      0.000000      0.000000      1.000000 'a_000073a'
    146.000000    238.382294    422.248322    708.000000    406.852264     73.000000    153.945786    246.723373    458.000000    405.727203     14.000000     53.631420    109.534882    297.000000    359.176361     21.262236   -306.862244     22.618940   -228.175674     18.480642    -86.332603      5.078210     57.911922     23.372129    922.814819     32.032696   1919.531128     47.919327  -1416.088135     32.192539  -1316.371826     31.352619   -697.967896      0.000000      0.000000      0.000000      0.000000      0.000000      0.000000      1.000000 'a_000076a'
    277.724060    323.764435    407.249512    356.000000     39.000000    160.050644    181.063400    188.444824    -29.000000   -322.000000     38.988964     32.870468    -21.550369   -283.000000   -507.000000     97.051239  -3036.478760    101.590393  -1996.251709     13.726320    -51.355858      0.000000      0.000000      0.000000      0.000000     17.681410    216.857956      0.000000      0.000000      0.000000      0.000000     77.756424   -863.887634      0.000000      0.000000      0.000000      0.000000      0.000000      0.000000      1.000000 'a_000077a'
     43.507458     43.427746      0.000000   -204.703751   -413.106934     39.890221     39.119686     -4.000000   -216.535965   -402.802460     34.499191     38.109142     29.000000    -84.146355   -150.722839     84.761414   -841.678650     21.821306   -106.180542     17.637667    -54.419647      0.000000      0.000000     13.379181    151.224701     30.041340    617.795044      0.000000      0.000000     50.627865   -670.398071     38.791210   -317.897217      0.000000      0.000000      0.000000      0.000000      0.000000      0.000000      1.000000 'a_000078a'
    199.104218    247.776352    336.000000    454.310944    456.812195    139.873245    187.466919    263.000000    360.367432    365.619202     78.501030    112.327690    151.000000    174.767609    166.243896     80.931168  -1844.279297      0.000000      0.000000      0.000000      0.000000      0.000000      0.000000     15.102963     90.463524     33.501740    209.192780      0.000000      0.000000     59.795422  -1580.095093     56.273964   -852.786255      0.000000      0.000000      0.000000      0.000000      0.000000      0.000000      1.000000 'a_000080a'
    255.053391    297.000000    352.448334    320.269226    180.066757    266.166718    322.000000    402.100403    364.101776    229.197006    157.744019    219.000000    278.475677    240.910965    164.504929     79.534340  -2090.014893      0.000000      0.000000      0.000000      0.000000      0.000000      0.000000     26.135559    269.572754     43.497021   1047.210571      0.000000      0.000000     53.117928  -2133.064209     36.582085  -1413.983276      0.000000      0.000000      0.000000      0.000000      0.000000      0.000000      1.000000 'a_000081a'
    257.973175    342.295685    453.792053    455.643829    265.046265    277.262787    338.130463    411.813873    382.451385    230.321793    220.202194    251.570465    259.971283    197.753922    101.864967      0.000000      0.000000     84.999969  -2606.707031     86.564880  -1657.873657     12.758282    124.456245      0.000000      0.000000      0.000000      0.000000     71.542152  -2478.375977      0.000000      0.000000      0.000000      0.000000      0.000000      0.000000      0.000000      0.000000      0.000000      0.000000      1.000000 'a_000082a'
    175.743942    257.198059    367.968536    427.314575    189.151245     55.992981    111.351852    163.830215    175.590302    -20.668657    -28.973301    -13.996038    -13.974369    -28.308014    -84.356232      0.000000      0.000000      0.000000      0.000000      0.000000      0.000000     10.263003     28.288984     23.586487     80.608856     48.738132   1765.395874     76.166962  -2145.548584     18.408592   -495.919647     39.256748   -823.932800      0.000000      0.000000     10.649504    176.878174      0.000000      0.000000      1.000000 'a_000083a'
     56.889526     97.679070    160.724472    183.801224    -92.000000      0.149179     24.543098     58.533478     27.724815   -190.000000    -18.972235     -9.031342     -0.439911    -46.661186   -209.000000     27.294914   -116.815887     24.938047    -62.458847      0.000000      0.000000     13.664191    152.190063     34.572102    243.727249     44.480118    396.268860     43.040894   -244.773712     24.489849   -156.272751     19.563904   -161.908585      0.000000      0.000000      0.000000      0.000000      0.000000      0.000000      1.000000 'a_000085a'
     58.368473     92.127090     87.000000   -251.676163   -328.543243     27.895397     49.138817     29.000000   -264.662323   -331.310974     13.771403     25.247833      4.000000   -211.321564   -249.053665      0.000000      0.000000     24.198219   -131.641190     21.715792    -49.265865      6.909459     24.274912     31.045137    266.653564     32.555351    200.483612     15.829605   -126.169868     32.756645   -345.252777     33.728859   -360.177887      5.957341     52.846313      0.000000      0.000000      0.000000      0.000000      1.000000 'a_000086a'
    410.970245    491.644470    533.994141    371.000000    102.842384    456.635223    569.122253    643.137634    493.000000    164.047180    358.590546    468.135925    579.004028    561.000000    296.945740     83.480774  -2413.744873     83.675232  -1449.067993     21.639799    -29.703283      0.000000      0.000000      0.000000      0.000000     24.868391    172.455231      0.000000      0.000000      0.000000      0.000000     34.893196   -582.579773      0.000000      0.000000      0.000000      0.000000      0.000000      0.000000      1.000000 'a_000087a'
     42.529343     76.322647    151.454681     92.000000      8.952584      0.020711      3.318258     43.404427     39.000000     78.513077    -23.514952    -42.987835    -47.860237    -24.000000     69.157562      0.000000      0.000000      0.000000      0.000000      0.000000      0.000000     17.713791     50.258831     41.953083    391.828339     55.852821    646.480286     78.286209  -1506.369507     54.046917   -931.706055     40.147179   -600.098755      0.000000      0.000000      0.000000      0.000000      0.000000      0.000000      1.000000 'a_000088a'
    117.000000    145.770065    189.760681    201.981705    -44.159576     73.000000     91.851326    107.110352     69.751900   -147.131073     14.000000     25.117788     28.513939     -2.032657   -148.069443     78.153870  -1682.675537     80.000000   -777.433533      0.000000      0.000000      0.000000      0.000000      0.000000      0.000000     43.674324    185.405914      0.000000      0.000000      0.000000      0.000000     18.293961   -123.619751      0.000000      0.000000      0.000000      0.000000      0.000000      0.000000      1.000000 'a_000089a'
    117.963097    136.000000    126.000000     59.475407      8.577078     35.245808     43.000000     34.000000     18.715549    -29.248770      8.665797     14.000000     24.000000     40.022236     -4.619925     67.666542  -1027.554321      0.000000      0.000000      0.000000      0.000000     20.333458    219.258484     37.528358    271.411682     40.860565    656.234924      0.000000      0.000000     50.471642  -1640.876221     47.139435  -1344.765137      0.000000      0.000000      0.000000      0.000000      0.000000      0.000000      1.000000 'a_000092a'
    113.316887    169.929459    292.000000    572.351135    502.803253    109.809944    167.171402    292.000000    568.763916    596.360718     60.103508     92.359253    161.000000    334.664917    408.136200      0.000000      0.000000      0.000000      0.000000      0.000000      0.000000     29.421898    101.294258     40.204388    355.882874     60.660709    616.099670     43.622101  -1144.630249     35.992912   -285.394836     15.066847   -101.420280      0.000000      0.000000      0.000000      0.000000      0.000000      0.000000      1.000000 'a_000093a'
     33.845306     46.867630     48.000000     19.000000   -346.304169      8.559023     23.865095     24.000000    -53.000000   -405.401337      3.519002     19.126198     29.000000     29.000000   -102.986320      0.000000      0.000000      0.000000      0.000000      0.000000      0.000000     17.736059    128.058838     18.870310     97.615067     27.591106    317.884888     60.178761  -1530.655640     59.129692  -1471.143188     40.369057   -754.697815      0.000000      0.000000      0.000000      0.000000      0.000000      0.000000      1.000000 'a_000094a'
    356.489288    459.572510    614.960571    573.475891    209.000000    379.220337    511.869110    693.671082    675.107910    317.000000    205.906082    286.201813    386.211456    418.519836    229.000000     83.397461  -2237.678467     82.969658  -1747.009521     19.978573    -82.328789      0.000000      0.000000      0.000000      0.000000     26.643917    149.810822      0.000000      0.000000      0.000000      0.000000     37.598850   -777.881775      0.000000      0.000000      0.000000      0.000000      0.000000      0.000000      1.000000 'a_000096a'
    265.444550    412.988770    727.000000   1231.349731   1125.320435    167.612274    269.676300    498.000000    959.619141   1091.084961     48.757751     92.250481    180.000000    383.526062    516.115723      0.000000      0.000000      0.000000      0.000000      0.000000      0.000000     47.871841   1119.342285     57.387650   2054.570313     67.285316   2163.530029     36.339756  -1382.955444     24.175674   -660.021118      6.946324    -26.372496      0.000000      0.000000      0.000000      0.000000     17.768360     92.968681      1.000000 'a_000099a'
    273.000000    346.000000    532.000000    566.000000    112.000000    239.000000    297.000000    424.000000    463.000000     92.000000    151.000000    190.000000    273.000000    312.000000    107.000000      0.000000      0.000000      0.000000      0.000000      0.000000      0.000000     30.983747    287.243317     45.242832    234.688889     50.256191   1375.680908     53.022865  -1187.635864     35.261272   -423.516479      6.310283    -59.319054      0.000000      0.000000      0.000000      0.000000      0.000000      0.000000      1.000000 'a_000102a'
    155.814453    199.551407    248.733459    218.340912    -59.895607    140.266907    175.667007    185.565323     59.522846   -206.185181     59.258217     68.292725     52.271713    -46.326080   -175.635742     73.744995  -2110.962646     74.024536  -1662.404297      0.000000      0.000000      0.000000      0.000000      0.000000      0.000000     12.692839     28.958879      0.000000      0.000000      0.000000      0.000000     69.284172   -557.409119      0.000000      0.000000      0.000000      0.000000      0.000000      0.000000      1.000000 'a_000103a'
     48.017960     99.491264    229.000000    447.663025    386.823181     20.356941     65.957253    175.000000    395.682831    411.879242     -4.048180     36.139462    126.000000    316.749664    369.959351      0.000000      0.000000      0.000000      0.000000     14.000342    -43.008423     48.707901    878.018494     53.857296   1874.760376     46.035702   2669.039307     41.292099  -1024.981445     34.093632   -675.676025     12.347419   -241.256531      0.000000      0.000000      0.000000      0.000000     12.120101     33.991577      1.000000 'a_000104a'
    101.094452    131.000000    163.421066    195.870911    143.464401     57.794392     83.000000     91.973969     77.657799    -16.442768     -0.386488     19.000000     29.541683     13.640866    -11.765086      0.000000      0.000000      0.000000      0.000000      0.000000      0.000000     41.350185    398.775696     54.529907    834.898315     65.612686    977.553650     42.649815   -589.020386     22.058014    -64.491280      0.000000      0.000000      0.000000      0.000000      0.000000      0.000000      0.000000      0.000000      1.000000 'a_000107a'
    156.000000    203.481491    244.000000    238.736298    175.000000    151.000000    203.515366    239.000000    198.448273     97.000000     43.000000     68.435020     63.000000    -27.830608   -141.000000      0.000000      0.000000      0.000000      0.000000      0.000000      0.000000     15.185573     87.258965     15.781445     97.647156     17.715530     64.802605     78.565094  -1517.741089     81.913437  -1415.352783     86.284470   -812.294189      0.000000      0.000000      0.000000      0.000000      0.000000      0.000000      1.000000 'a_000109a'
    112.000000    147.778580    276.808899    293.481384   -123.966789    126.000000    167.239182    259.748535    195.611862   -212.294662     58.000000     77.814529     83.232246    -91.481850   -317.505005     92.549873  -1555.413208     94.135017  -1560.588379     96.000000   -715.113770      0.000000      0.000000      0.000000      0.000000      0.000000      0.000000      0.000000      0.000000      0.000000      0.000000      0.000000      0.000000      0.000000      0.000000      0.000000      0.000000      0.000000      0.000000      1.000000 'a_000110a'
    208.217865    243.964844    164.803207   -281.039734   -458.000000    235.689438    262.925598    185.102142   -279.305420   -468.000000    166.972595    205.525772    172.266586   -104.459663   -268.000000      0.000000      0.000000      0.000000      0.000000      0.000000      0.000000     18.803530    121.149887     31.466698    384.139618     45.194447    606.192505     59.645535  -1869.287476     47.465790  -1093.098633     31.215204   -490.414734      0.000000      0.000000      0.000000      0.000000      0.000000      0.000000      1.000000 'a_000111a'
    156.000000    209.000000    193.651398   -415.571503   -460.810516     97.000000    117.000000     42.331795   -435.679321   -419.297699     39.000000     53.000000     15.734622   -221.024292   -219.418243    108.055145  -2690.480713    112.000000  -1866.297119    112.000000   -819.265747      0.000000      0.000000      0.000000      0.000000      0.000000      0.000000      0.000000      0.000000      0.000000      0.000000      0.000000      0.000000      0.000000      0.000000      0.000000      0.000000      0.000000      0.000000      1.000000 'a_000112a'
    257.842010    332.000000    402.386108    346.523224    122.000000    179.937668    195.000000    136.339691   -161.095703   -292.000000   -226.295929   -375.000000   -662.954834  -1229.442017  -1289.000000      0.000000      0.000000      0.000000      0.000000      0.000000      0.000000      9.357322     78.123672     23.009594    319.954895     67.975662   2246.447266     79.032822  -4588.887207     73.310226  -4047.946045     39.708397   -995.736694      0.000000      0.000000      0.000000      0.000000      0.000000      0.000000      1.000000 'a_000113a'
    131.000000    194.810486    338.630402    567.542786    500.680695    102.000000    154.266693    246.461487    379.243835    356.294861     68.000000    110.507797    171.599365    224.332611    203.023987     79.591965   -901.425110     36.315174   -360.148987     20.018053    -29.112396      0.000000      0.000000     11.884809    461.744598     33.817986    656.234741      0.000000      0.000000     37.223625   -788.089294     38.195625   -582.237793      0.000000      0.000000      0.000000      0.000000      0.000000      0.000000      1.000000 'a_000114a'
     72.190414    142.909515    324.036102    639.000000    487.070953     48.780548    111.922974    258.972778    571.000000    552.351013     33.993114     77.633644    205.141235    483.000000    545.398438      0.000000      0.000000      0.000000      0.000000      0.000000      0.000000     38.067528    349.249390     58.429916    628.535034     58.224583   1345.841309     43.815342   -741.279053     18.496811   -204.827271     10.467227    -80.254745      0.000000      0.000000      0.000000      0.000000      0.000000      0.000000      1.000000 'a_000116a'
    268.000000    267.589447    215.261292    -25.099081    -72.919144    283.000000    252.358398    126.286560    -64.013687    -25.170433    200.000000    161.202072     42.400593    -33.199753     46.443039      0.000000      0.000000      0.000000      0.000000      0.000000      0.000000     14.493788     88.837540     16.472467     71.665016     48.777866    269.523254     60.827042  -2259.661621     56.156040  -1081.861694     21.687489   -440.792969      0.000000      0.000000      0.000000      0.000000      0.000000      0.000000      1.000000 'a_000117a'
     97.000000    120.806046    161.550247    181.995361    -27.575134     29.000000     34.870125     27.055321    -27.846724   -137.028976      0.000000      8.892053      5.036425      3.999190     10.594256     85.718781  -1968.013062     85.943504  -1231.312988     36.376362   -360.992767      0.000000      0.000000      0.000000      0.000000     19.846878    475.420135      0.000000      0.000000      0.000000      0.000000     31.055300   -393.593811      0.000000      0.000000      0.000000      0.000000      0.000000      0.000000      1.000000 'a_000118a'
     67.878136    107.000000    172.476868    216.653519     46.484428      9.245657     24.000000     48.244213     32.898174    -81.741447    -13.516976    -14.000000    -18.866108    -37.170284    -58.112144      9.437395    -25.314655      0.000000      0.000000      0.000000      0.000000     11.957670    233.122742     18.214830    212.907745     67.809280    534.977417     64.099312  -1817.312500     58.816845   -769.960876      0.000000      0.000000      0.000000      0.000000      0.000000      0.000000      0.000000      0.000000      1.000000 'a_000119a'
    250.493423    327.000000    434.143738    454.497284    166.000000    152.065552    205.000000    282.968353    270.986176     39.000000     19.858713     43.000000     66.863579     16.456818    -83.000000      0.000000      0.000000      0.000000      0.000000      0.000000      0.000000      9.683713    176.383301     23.948761    375.449554     38.754314    686.336731     60.781513  -2814.729004     63.291821  -2213.090576     55.245686  -1175.508423      0.000000      0.000000      0.000000      0.000000      0.000000      0.000000      1.000000 'a_000120a'
     47.692295     52.237827     88.985786     32.429047    -69.860336      3.737426     -6.143697     -5.461417    -59.660366    -80.104828    -38.679775    -45.650528    -62.948288   -103.518402    -61.254650      0.000000      0.000000      0.000000      0.000000      0.000000      0.000000     23.614302     34.153053     52.219868    469.830261     51.270927    908.164612     70.385696   -937.738708     41.780132   -610.742493     37.670048   -303.030518      0.000000      0.000000      0.000000      0.000000      0.000000      0.000000      1.000000 'a_000121a'
     65.318069     77.961411     83.009079      9.974970   -161.000000      9.031342      9.348795    -26.165724   -175.410202   -341.000000    -40.988400    -44.220066    -81.832695   -172.374771   -263.000000     88.547607  -1479.642944     87.942139   -866.624329     15.011514    -40.589725      0.000000      0.000000      0.000000      0.000000     29.607624    265.082397      0.000000      0.000000      0.000000      0.000000     45.101528   -614.871460      0.000000      0.000000      0.000000      0.000000      0.000000      0.000000      1.000000 'a_000122a'
     29.448427     19.741802    -31.234589   -144.945343   -131.000000     47.990280     52.985004     52.989269     34.095779     43.000000     43.068951     57.983589     83.082611     89.248390     87.000000     76.022491   -732.377380     31.097641   -287.579865     28.806202   -164.113907      0.000000      0.000000     25.432783    431.229218     29.975290    772.886108      0.000000      0.000000     19.124090   -227.965073     22.816277   -278.575653      0.000000      0.000000      0.000000      0.000000      0.000000      0.000000      1.000000 'a_000123a'
     73.659424    107.000000    156.000000    179.527023    109.824135     53.446659     78.000000    107.000000    125.888687     90.498367     58.094379     83.000000    102.000000    126.240387    102.195541     94.000000   -784.675720     94.000000   -385.269836     31.038143    -53.543697      0.000000      0.000000      0.000000      0.000000      9.832956     44.302048      0.000000      0.000000      0.000000      0.000000     53.128899   -413.697968      0.000000      0.000000      0.000000      0.000000      0.000000      0.000000      1.000000 'a_000124a'
    180.146362    224.000000    290.183014     77.219482   -206.615112    137.224701    156.000000    223.617905    125.484383   -111.596283     97.006439    112.000000    136.519501     50.458466   -116.430534      0.000000      0.000000      0.000000      0.000000      0.000000      0.000000     27.955820     77.835617     31.358700    101.145248     37.145477    252.287292     55.993549   -937.861328     53.432205   -848.985474     29.578903   -493.785736      0.000000      0.000000      0.000000      0.000000      0.000000      0.000000      1.000000 'a_000125a'
    292.000000    385.000000    551.000000    625.000000    405.000000    288.000000    380.000000    522.000000    590.000000    395.000000    195.000000    258.000000    361.000000    434.000000    322.000000     87.215614  -2415.122559     91.969719  -1786.233521    101.090439   -849.877808      0.000000      0.000000      0.000000      0.000000      0.000000      0.000000      0.000000      0.000000      0.000000      0.000000      0.000000      0.000000      0.000000      0.000000      0.000000      0.000000      0.000000      0.000000      1.000000 'a_000126a'
     97.336655    131.485733    175.000000    167.874878     81.429649     42.553158     83.150764    122.000000    141.277939    129.533478    -19.346296      4.256509     19.000000     31.319887    121.613121     80.310379  -1459.889771      9.613501    -54.553474      0.000000      0.000000      0.000000      0.000000     13.367644    218.480667     44.595734    617.392151      0.000000      0.000000     58.395332  -1426.976440     41.404266   -547.124023      0.000000      0.000000      0.000000      0.000000      0.000000      0.000000      1.000000 'a_000127a'
    146.000000    165.349716    161.000000    -36.660847   -215.520340    141.000000    175.011490    170.000000    -30.994389   -227.914307     92.000000    121.688972    122.000000    -34.588581   -188.036255     82.308006  -1306.638672     87.278770  -1439.066772     14.275113    -59.716225      0.000000      0.000000      0.000000      0.000000     17.479439    183.524963      0.000000      0.000000      0.000000      0.000000     55.774364  -1128.685913      0.000000      0.000000      0.000000      0.000000      0.000000      0.000000      1.000000 'a_000128a'
    108.953018    182.577942    352.963989    678.000000    556.000000     86.640526    187.674133    367.718842    727.000000    688.000000     27.932682    109.146965    213.220245    458.000000    478.000000      0.000000      0.000000      0.000000      0.000000      0.000000      0.000000     30.439953    538.643799     39.731544    940.534668     45.919106   1415.635620     43.801929  -1529.670532     38.268456  -1344.496216     32.080894   -941.895752      3.758119     37.054001      0.000000      0.000000      0.000000      0.000000      1.000000 'a_000130a'
    117.000000    161.000000    209.000000     44.486900   -122.806427    146.000000    190.000000    170.000000   -146.283401   -325.358490     97.000000    122.000000     73.000000   -262.665009   -401.134735     80.471375  -1601.925537     84.036377  -1838.887451      0.000000      0.000000      0.000000      0.000000      0.000000      0.000000     24.609631     28.928709      0.000000      0.000000      0.000000      0.000000     79.390373  -1337.484375      0.000000      0.000000      0.000000      0.000000      0.000000      0.000000      1.000000 'a_000131a'
    119.026276    161.000000    203.721024    263.000000    268.559326    169.489319    214.000000    268.060455    327.000000    324.196198     62.432285     78.000000     73.047119     53.000000      8.963566      0.000000      0.000000      0.000000      0.000000      0.000000      0.000000     30.594950    186.001450     30.949299    327.949097     41.777012     91.021660     48.869324  -1099.135132     48.582798  -1448.233643     35.649231   -491.899261      0.000000      0.000000      0.000000      0.000000     10.573756     65.742981      1.000000 'a_000133a'
     73.000000     83.000000    118.430862    137.117905     77.371979     73.000000     87.000000    108.661407    136.797089     21.408443    -24.000000     -9.000000     -8.113668    -75.973015   -249.697449     51.564503   -300.201935     51.337471   -380.672424     34.790550   -190.966599     20.435497    250.998474     18.517342    280.928192     32.983562    964.633789      0.000000      0.000000      0.000000      0.000000      0.000000      0.000000      0.000000      0.000000      0.000000      0.000000      0.000000      0.000000      1.000000 'a_000134a'
    145.514984    239.000000    436.151367    323.017822   -156.000000    125.892998    205.000000    305.738037     74.874512   -356.000000     73.620995    102.000000    120.078247    -43.705994   -224.000000     87.384094  -1802.084229     92.000000  -1564.105103     19.618759    -66.187126      0.000000      0.000000      0.000000      0.000000     25.842243    339.424744      0.000000      0.000000      0.000000      0.000000     46.538998   -999.243286      0.000000      0.000000      0.000000      0.000000      0.000000      0.000000      1.000000 'a_000135a'
    194.628128    249.493378    306.980927    137.744263    -68.038010    122.647163    165.843994    168.175552     15.672063    -42.424835     78.441597     96.850311     82.622604    -18.471846    -29.766159     77.624443  -1981.853516     10.600835    -41.837051      0.000000      0.000000      0.000000      0.000000     10.638282    111.363693     40.271385    212.171188      0.000000      0.000000     58.372700  -1275.848755     53.728615   -866.979065      0.000000      0.000000      0.000000      0.000000      0.000000      0.000000      1.000000 'a_000137a'
    255.903046    332.000000    445.994751    459.618713    239.000000    198.559113    253.000000    345.771393    352.393311    200.000000     81.883339    122.000000    151.636673    161.820496    122.000000     13.050230    -50.621613      0.000000      0.000000      0.000000      0.000000      5.404312     45.378387     29.066626     61.353004     37.977730    237.652939     68.432693  -1826.605713     68.313553  -1516.161621     61.959908   -811.737793      0.000000      0.000000      0.000000      0.000000      0.000000      0.000000      1.000000 'a_000138a'
    185.000000    239.000000    341.000000    313.281982    -37.089970    229.000000    307.000000    419.000000    377.208923    -44.114162    327.000000    395.000000    473.000000    387.673798   -148.427628      0.000000      0.000000      0.000000      0.000000      0.000000      0.000000     26.178658    137.114365     25.516399    151.396088     22.764988     36.441074     70.911415  -1575.232178     69.515556  -1742.329590     72.586861  -1269.311523      0.000000      0.000000      0.000000      0.000000      0.000000      0.000000      1.000000 'a_000139a'
    263.000000    268.000000    151.000000    -75.075569   -186.481934    234.000000    224.000000     83.000000   -166.440613   -234.157059    175.000000    156.000000     29.000000   -171.772079   -211.310471     77.515457  -2009.830200     78.650284  -1860.279907     79.698074  -1158.087524      0.000000      0.000000      0.000000      0.000000      0.000000      0.000000      0.000000      0.000000      0.000000      0.000000      0.000000      0.000000      0.000000      0.000000      0.000000      0.000000      0.000000      0.000000      1.000000 'a_000141a'
     61.630043     68.798798     75.151833     72.853203     63.067478     24.731024      0.151283    -16.856022    -52.534969     -6.991357    -95.962875   -136.296387   -187.515472   -291.282135   -252.654343     54.934994   -352.681183     52.045895   -350.526459     20.354872   -107.671188     22.258821    270.939575     28.521334    941.697876     63.461468   1647.712036      8.081168    -73.917130     17.752186   -244.988678     20.366800   -159.739746     14.793581     74.915199      0.000000      0.000000      0.000000      0.000000      1.000000 'a_000142a'
     95.507568    157.462830    306.798767    446.290710    222.061813     91.251579    148.594269    286.651276    417.557831    226.565430     68.552811    130.294983    213.074905    302.010345    198.707306      0.000000      0.000000      0.000000      0.000000      0.000000      0.000000     19.933704    142.298935     26.623617    111.603500     51.804394   1088.834595     68.066292  -1539.432861     61.376381  -1071.740967     36.195606   -507.528870      0.000000      0.000000      0.000000      0.000000      0.000000      0.000000      1.000000 'a_000143a'
    107.773140    136.582581    190.000000     34.277237   -165.382156     82.218811     92.793938     53.000000   -382.513458   -604.101440     42.093174     41.426624    -43.000000   -569.677429   -753.995483      0.000000      0.000000      0.000000      0.000000      0.000000      0.000000     22.700512    106.828270     24.573866    107.740814     13.333683     55.075806     56.078159  -1884.953125     55.426132  -1631.884521     53.799568   -886.304810      0.000000      0.000000      0.000000      0.000000      0.000000      0.000000      1.000000 'a_000144a'
    166.000000    229.000000    363.131165    453.281921     43.332592    126.000000    190.000000    314.284943    369.259521     46.321232     34.000000     68.000000    117.347832    135.328979     17.280764      0.000000      0.000000      0.000000      0.000000      0.000000      0.000000     20.175707    214.162842     21.824875    188.721237     26.552515    122.007225     70.900429  -2459.837158     71.704849  -1905.278809     16.708817    -43.875633      0.000000      0.000000      0.000000      0.000000     30.585135    527.007202      1.000000 'a_000145a'
     97.000000    117.438736    141.586716    104.503578   -243.412170    102.000000    131.220947    144.847794     22.495323   -393.823425     19.000000     33.888962     -4.487345   -225.438538   -567.946594     66.972900  -1779.914307     76.694618  -1412.814697     28.583023   -167.941818      0.000000      0.000000      0.000000      0.000000     36.319328   1040.092896      0.000000      0.000000      0.000000      0.000000     11.078324   -129.137115      0.000000      0.000000      0.000000      0.000000      0.000000      0.000000      1.000000 'a_000146a'
    178.199356    209.000000    301.195831    503.616547    286.244293    111.826424    146.000000    201.599228    308.760956    162.533508     28.862114     48.000000     58.161953     78.010094     39.907860     72.194695  -1593.970093     84.638390  -1323.866455     83.979675   -642.018433      0.000000      0.000000      0.000000      0.000000      0.000000      0.000000      0.000000      0.000000      0.000000      0.000000      0.000000      0.000000      0.000000      0.000000      0.000000      0.000000      0.000000      0.000000      1.000000 'a_000152a'
    169.914551    300.469330    577.403076    714.480042    336.000000    110.565163    225.899948    443.455841    576.494690    307.000000     39.453037     81.673836    112.309700    101.982437     43.000000      0.000000      0.000000      0.000000      0.000000      0.000000      0.000000     27.087488    173.480927     34.664707    190.521500     42.790031    836.567566     68.514015  -1793.128052     67.335297  -1806.333862     49.185638  -1306.947998      0.000000      0.000000      0.000000      0.000000      0.000000      0.000000      1.000000 'a_000153a'
     78.000000    114.286690    235.483612    502.000000    535.972900     48.000000     92.595665    185.844543    390.000000    353.730286     39.000000     72.989159    154.406418    317.000000    314.049591      0.000000      0.000000      0.000000      0.000000      0.000000      0.000000     37.888729    674.122375     42.953209    867.319580     46.618450    866.728149     34.275707   -710.652954     32.163097   -631.867920     34.013000   -666.528259     17.835564    247.922363     14.883691     91.979958      9.368545     20.596540      1.000000 'a_000155a'
    159.357651    203.300797    301.307220    294.819305    -83.000000    194.557022    253.350876    333.992065    371.936188     63.000000    143.459396    183.379410    251.748856    348.595734    205.000000     84.667694  -1202.935181     82.017532   -677.469849     20.180475   -132.110840      0.000000      0.000000      0.000000      0.000000     41.051144    480.621735      0.000000      0.000000      0.000000      0.000000     18.545927   -223.268463      0.000000      0.000000      0.000000      0.000000      0.000000      0.000000      1.000000 'a_000156a'
    146.000000    219.000000    367.033173    448.718506    309.794250     19.000000     48.000000    125.259460    180.021835    195.299713    -48.000000    -39.000000     -9.767298     37.739216    116.610092      0.000000      0.000000      0.000000      0.000000      0.000000      0.000000     37.572552    788.811523     51.888016   1741.440063     45.771626   2138.833984     51.573277  -1479.869263     42.111984  -1006.611450     40.212715   -459.035126      0.000000      0.000000      0.000000      0.000000      0.000000      0.000000      1.000000 'a_000157a'
    121.591148    141.893738    219.000000    288.693756     96.986511    110.374603    158.081787    249.000000    322.362610    175.187790     47.015915     70.257416    107.000000    167.836716    194.899979     83.434647  -1121.130859     89.297623   -672.061279     27.865219   -112.759521      0.000000      0.000000      0.000000      0.000000     47.718513   1575.007080      0.000000      0.000000      0.000000      0.000000     15.176039   -288.527618      0.000000      0.000000      0.000000      0.000000      0.000000      0.000000      1.000000 'a_000158a'
     19.000000     24.000000     24.761490     82.439781    106.402115     14.000000     24.000000     28.181086     77.555321     91.877686     24.000000     34.000000     47.916752     98.805542     96.019981      0.000000      0.000000      0.000000      0.000000      0.000000      0.000000     18.289574     92.908722     21.787148    124.620705     49.964443    223.836807     57.710426  -1126.763428     54.212852   -521.877502     20.479441   -126.163193      0.000000      0.000000      0.000000      0.000000      0.000000      0.000000      1.000000 'a_000159a'
    182.506836    225.858917    319.676208    429.404419    302.039886    112.354797    140.246811    192.576248    239.970093    203.050674     13.601461     14.994154      2.026544    -19.812311     -3.916826      0.000000      0.000000      0.000000      0.000000      0.000000      0.000000     23.163544    148.436295     25.307137    215.102814     36.643642    281.077026     73.820160  -2508.837402     72.394188  -1594.291504     65.356354   -554.463562      0.000000      0.000000      0.000000      0.000000      0.000000      0.000000      1.000000 'a_000161a'
     38.475937     63.000000     96.844475    -44.993065   -377.217468    -56.541534    -58.000000    -91.537788   -340.247253   -562.961914    -26.977949    -19.000000     -8.712690   -111.613564   -249.261871     96.000000  -1420.046997     12.134608    -38.889267      0.000000      0.000000      0.000000      0.000000     33.440327    386.398743     50.736080   1405.993042      0.000000      0.000000     48.321278  -1183.461670     45.263920   -594.328308      0.000000      0.000000      0.000000      0.000000      0.000000      0.000000      1.000000 'a_000162a'
    131.127441    184.511459    263.000000    136.000000    -36.174324     94.839218    146.032608    214.000000     39.000000   -121.982880     28.131567     51.571499     87.000000     87.000000     12.874516      0.000000      0.000000      0.000000      0.000000     20.774212   -135.209244     10.652720     87.393692      8.540018     33.868385      5.808208     57.046715     75.323204  -1521.722534     81.475372  -1452.198975      9.588439    -93.092590      0.000000      0.000000      0.000000      0.000000      7.766824     69.477036      1.000000 'a_000166a'
    125.073273    154.006454    126.942451    -29.000000    -19.079481    122.103249    143.493286     62.559780    -83.000000    -20.600960    129.895966    134.698334     -5.966057   -175.000000    -40.327286      0.000000      0.000000      0.000000      0.000000      0.000000      0.000000     14.406456    254.282303     20.261513    189.526215     23.134380     61.620708     52.111759  -1855.312988     49.853271  -1469.970093     48.369438   -907.085815      0.000000      0.000000      0.000000      0.000000      0.000000      0.000000      1.000000 'a_000168a'
     90.618546    131.000000    166.298294    118.508286    -65.030365     55.303802     87.000000    122.325439     66.031357    -78.556885     12.897313     34.000000     47.990280     35.191822    -38.854427     93.969261  -1388.654907     95.602730   -891.258423     20.695944   -159.131058      0.000000      0.000000      0.000000      0.000000      4.266290     46.909706      0.000000      0.000000      0.000000      0.000000     18.947779   -238.636307      0.000000      0.000000      0.000000      0.000000     15.065750    204.983978      1.000000 'a_000171a'
     97.000000    126.438148    175.000000    202.544373    126.000000     43.000000     67.980759    102.000000    115.053902     78.000000     14.000000     29.507797     58.000000     58.017479     29.000000      0.000000      0.000000      0.000000      0.000000      0.000000      0.000000     44.581459    566.367310     45.617352   1139.130859     46.011936   1253.976563     38.645351  -1297.716919     37.445686   -817.609985     37.993759   -493.024017      0.000000      0.000000      0.000000      0.000000      0.000000      0.000000      1.000000 'a_000173a'
    122.434509    150.951660    166.000000     78.856911    -86.930122     67.732300     87.204163     78.000000    -43.278919   -155.506134     27.871479     33.683533     24.000000    -75.489792   -139.782471     83.487740  -1614.818604     86.470428  -1098.182861      0.000000      0.000000      0.000000      0.000000      0.000000      0.000000     25.958986    355.948242      0.000000      0.000000      0.000000      0.000000     50.238899   -575.511780      0.000000      0.000000      0.000000      0.000000      0.000000      0.000000      1.000000 'a_000174a'
    151.000000    235.006454    312.000000     20.772406   -217.324661     87.000000    164.004837    209.000000    -91.399002   -257.774414     29.000000     65.250290     78.000000   -116.449074   -208.883270      0.000000      0.000000      0.000000      0.000000      0.000000      0.000000     21.368225    205.662460     24.879988    165.701019     47.215248    156.907776     68.631775  -2118.856201     65.120010  -1361.032104     42.784752   -444.176849      0.000000      0.000000      0.000000      0.000000      0.000000      0.000000      1.000000 'a_000175a'
    128.201050    194.504913    337.025421    498.000000    321.127899     83.675911    158.015244    291.351685    458.000000    381.699951     35.274628    102.526596    191.900009    332.000000    299.749420      0.000000      0.000000      0.000000      0.000000      0.000000      0.000000     30.844147    344.891205     43.783695   1102.817017     45.180569   1608.324707     51.182720  -1268.271484     42.092052  -1041.186279     39.750347   -671.422852      0.000000      0.000000      0.000000      0.000000      0.000000      0.000000      1.000000 'a_000176a'
     64.722092     87.000000    134.097229    124.249001    -59.275997     29.451519     48.000000     81.831573    108.198280    -29.466753     -0.265904     24.000000     62.217800    137.285690    111.700439     72.000000  -1078.688477     72.000000   -414.606720      0.000000      0.000000      0.000000      0.000000      0.000000      0.000000     49.006866    462.617126      0.000000      0.000000      0.000000      0.000000     15.730740    -97.885178      0.000000      0.000000      0.000000      0.000000      0.000000      0.000000      1.000000 'a_000177a'
     91.906197    100.833900    126.198296     -0.265902   -229.000000     85.397064     80.837341     61.196075   -203.414902   -439.000000     14.322842     29.970755     -4.673510   -220.689362   -356.000000     79.269241  -2089.458252     82.000000  -1456.016602     82.000000   -711.719055      0.000000      0.000000      0.000000      0.000000      0.000000      0.000000      0.000000      0.000000      0.000000      0.000000      0.000000      0.000000      0.000000      0.000000      0.000000      0.000000      0.000000      0.000000      1.000000 'a_000179a'
    146.000000    189.566528    258.000000    361.511719    303.707336    146.000000    209.285416    283.000000    402.504456    386.026672    117.000000    153.076859    205.000000    291.543335    314.896484      0.000000      0.000000      0.000000      0.000000     24.471029    -62.723228     27.565094     98.735687     26.982107     51.503876     65.528969    616.528259     58.050900  -1315.840210     52.157768   -543.939697      0.000000      0.000000      0.000000      0.000000      0.000000      0.000000      0.000000      0.000000      1.000000 'a_000180a'
     80.861763    126.000000    146.180893     53.447292    -85.300697      3.257757     39.000000     48.031315    -27.226404   -167.917831    -39.209019    -29.000000    -23.995140    -45.293423   -117.618446     83.758873  -1351.407837     86.000000   -878.448608     47.237923   -326.299011      0.000000      0.000000      0.000000      0.000000     26.973186    462.866058      0.000000      0.000000      0.000000      0.000000      0.000000      0.000000      0.000000      0.000000      0.000000      0.000000      0.000000      0.000000      1.000000 'a_000181a'
     68.000000    134.132980    351.612335    625.000000    462.037109     19.000000     64.960884    189.050919    371.000000    324.506073    -19.000000     20.876726    125.891563    288.000000    260.615021      0.000000      0.000000      0.000000      0.000000     15.957204    -54.258331     31.909304    721.327454     38.696129   1031.025391     33.165764   1293.008911     51.068604  -1989.111206     40.917274  -1187.088989     38.877029  -1062.086792      0.000000      0.000000      0.000000      0.000000      0.000000      0.000000      1.000000 'a_000183a'
    263.000000    347.852753    478.234039    638.251099    358.785065    131.000000    160.278702    195.953125    207.201324     41.077248     73.000000     92.111412     87.352440     35.877567    -88.349884     73.204750  -2633.930176     76.975525  -1462.713501     77.898033   -819.055969      0.000000      0.000000      0.000000      0.000000      0.000000      0.000000      0.000000      0.000000      0.000000      0.000000      0.000000      0.000000      0.000000      0.000000      0.000000      0.000000      0.000000      0.000000      1.000000 'a_000185a'
    166.000000    190.729004    241.430649    308.027802    190.169327    180.000000    219.106552    256.412872    301.842194    121.186676    131.000000    156.869476    189.811752    227.666290     90.098480     74.735306   -722.398499     85.246269  -1165.776489     15.122081    -51.128708      0.000000      0.000000      0.000000      0.000000     21.967764    265.540070      0.000000      0.000000      0.000000      0.000000     48.228558  -1159.459961      0.000000      0.000000      0.000000      0.000000      0.000000      0.000000      1.000000 'a_000187a'
    156.997162    235.505493    257.720306     39.000000    -83.000000     89.099113    134.510376    112.741203   -131.000000    -92.000000     56.197586     63.626114    -38.990139   -336.000000   -219.000000      0.000000      0.000000      0.000000      0.000000      0.000000      0.000000      9.233580     58.968262     38.857956    533.116211     44.958172    944.619141     78.344620  -1566.421509     58.707569  -1287.865234     52.961746   -951.598877      0.000000      0.000000      0.000000      0.000000      0.000000      0.000000      1.000000 'a_000188a'
     92.653374    102.031120      2.285794   -439.486725   -458.000000     80.450111     83.727348    -50.853535   -539.799011   -546.000000     54.050896     57.909988    -34.634274   -383.160614   -380.000000     89.281403  -1698.442749     90.029350  -1210.558350     84.940147   -502.129059      0.000000      0.000000      0.000000      0.000000      0.000000      0.000000      0.000000      0.000000      0.000000      0.000000      0.000000      0.000000      0.000000      0.000000      0.000000      0.000000      0.000000      0.000000      1.000000 'a_000189a'
     53.311806     83.463379    107.062782     92.000000    -19.000000     53.148407     97.307709    135.492279     48.000000    -53.000000     -1.474135      7.823751     14.801898    -58.000000    -58.000000     11.150663    -44.407551      0.000000      0.000000      0.000000      0.000000      9.698143    160.585999     19.383751    353.048523     50.974731   1455.311157     73.535675  -1592.407593     67.555054  -1589.619385     45.025269   -594.688843      0.000000      0.000000      0.000000      0.000000      0.000000      0.000000      1.000000 'a_000190a'
     72.747078     77.977928     20.094488   -388.514374   -458.817749     43.612373     40.988400    -30.882414   -388.281433   -496.684662     23.492155     34.574158      9.181122   -146.749664   -241.159729      0.000000      0.000000     26.205254   -228.968597     25.676516   -254.492340     30.916290     47.241348     17.921314    177.819016     63.828384    926.664124     61.083710  -1729.911255     43.060871   -565.905396      0.000000      0.000000      0.000000      0.000000      0.000000      0.000000      0.000000      0.000000      1.000000 'a_000192a'
     68.000000     73.008018     67.986229     37.764614    -24.379698     53.000000     59.136795     74.239883     92.228851     49.385933     24.000000     29.020016     42.996349     82.613136     90.908081     90.652641  -1206.084229     92.000000  -1105.171265     92.000000   -702.656189      0.000000      0.000000      0.000000      0.000000      0.000000      0.000000      0.000000      0.000000      0.000000      0.000000      0.000000      0.000000      0.000000      0.000000      0.000000      0.000000      0.000000      0.000000      1.000000 'a_000193a'
    209.881927    302.000000    374.680786    320.627716    195.000000    201.954910    307.000000    393.506836    350.648468    239.000000    135.743271    214.000000    300.625183    302.044983    229.000000     96.968857  -1741.902954     99.908035  -1564.561768    104.759880   -899.750977      0.000000      0.000000      0.000000      0.000000      0.000000      0.000000      0.000000      0.000000      0.000000      0.000000      0.000000      0.000000      0.000000      0.000000      0.000000      0.000000      0.000000      0.000000      1.000000 'a_000194a'
    163.228836    231.789474    288.000000    -92.000000   -421.153748     77.834305    106.846321     92.000000   -229.000000   -382.405609     38.021637     58.118301     48.000000   -126.000000   -214.323196     84.325005  -1703.639282     86.920036  -1046.361450      0.000000      0.000000      0.000000      0.000000      0.000000      0.000000     31.072206    447.806702      0.000000      0.000000      0.000000      0.000000     49.090527   -794.797058      0.000000      0.000000      0.000000      0.000000      0.000000      0.000000      1.000000 'a_000196a'
    234.000000    293.733002    420.976715    527.000000    228.324326    136.000000    166.264008    204.191025    156.000000    -17.796021     48.000000     62.786877     72.881065     29.000000    -39.022854      0.000000      0.000000      0.000000      0.000000      0.000000      0.000000     25.339743    419.137146     30.212696    240.281052     42.759312    323.347595     59.867092  -1849.862793     62.856964  -1001.243103     55.240688   -483.997223      0.000000      0.000000      0.000000      0.000000      0.000000      0.000000      1.000000 'a_000198a'
     29.000000     43.387241     67.696312     87.516960     52.435116     14.000000     27.871479     43.166481     55.484299     50.484505     -4.000000      0.381677      0.000000     -0.027110     11.324563     20.432604   -123.245636     18.715939    -96.913139     16.001911    -47.794727     25.792297    224.201279     32.338436    425.883331     38.930779    732.310364     42.511189   -340.798706     39.489304   -409.913147     37.067310   -424.044525      0.000000      0.000000      0.000000      0.000000      0.000000      0.000000      1.000000 'a_000199a'
    140.611237    170.115295    107.000000   -280.469452   -363.171997     62.568237     82.949409     29.000000   -245.864731   -278.770172     25.094992     33.895496      0.000000   -159.975464   -182.000137     89.236252  -1027.250244     30.493086   -216.585556     25.505409   -130.892197      0.000000      0.000000     12.994225    291.357758     19.762732    441.325531      0.000000      0.000000     50.512604   -727.126526     47.747509   -528.788025      0.000000      0.000000      0.000000      0.000000      0.000000      0.000000      1.000000 'a_000201a'
     42.843967     87.000000    172.314102    261.531128    123.448273      4.438779     29.000000    109.408813    205.441620    155.379745    -67.980759    -63.000000     -4.131513     96.794365     99.979561      0.000000      0.000000      0.000000      0.000000      0.000000      0.000000     23.495598    173.326660     30.954052    395.772369     54.608467    916.755432     60.504402   -876.666138     53.045948   -725.062134     29.391535   -656.816406      0.000000      0.000000      0.000000      0.000000      0.000000      0.000000      1.000000 'a_000202a'
    195.575333    270.903412    466.079315    864.000000    764.830444    181.745270    274.904449    482.342499    947.000000    961.412048    144.157425    210.699615    387.063080    791.000000    847.167725      0.000000      0.000000      0.000000      0.000000     16.902784    -78.568565     27.974335    131.787323     53.192841    483.401886     42.321804   2313.477783     60.608288  -1628.931763     31.244877  -1007.795166     20.258890   -345.007507      0.000000      0.000000      0.000000      0.000000      0.000000      0.000000      1.000000 'a_000207a'
     51.035603     58.000000     58.567368   -126.000000   -413.033844     -9.513455     -9.000000    -89.493164   -434.000000   -574.756165     -8.447564    -24.000000    -82.090172   -317.000000   -389.567688     93.357292  -1927.627563     93.756058  -1088.645874     16.914827    -82.135605      0.000000      0.000000      0.000000      0.000000     27.516256    166.554733      0.000000      0.000000      0.000000      0.000000     49.568916   -515.747070      0.000000      0.000000      0.000000      0.000000      0.000000      0.000000      1.000000 'a_000208a'
     96.471970    164.156235    323.293488    579.453857    296.406250     61.896931    133.093765    300.854004    562.072693    376.523743     26.240438     64.114281    147.207947    239.252121     88.336784     13.032625    -35.515747     13.264526    -34.035664      0.000000      0.000000      7.493429     41.367085     33.383411    912.868835     37.234573   1957.925171     60.772041   -650.440491     39.259190   -995.018433     33.438526   -742.803101      0.000000      0.000000      0.000000      0.000000      0.000000      0.000000      1.000000 'a_000209a'
    140.465378    150.489243    161.000000    154.845764    120.102257    219.251404    238.948517    239.000000    208.592148    150.503616    179.245224    199.982300    195.000000    164.610779    108.425468     68.468468  -1307.526733     76.591873  -1648.680176     78.788490  -1231.849609     18.127270    233.170425      0.000000      0.000000      0.000000      0.000000      0.000000      0.000000      0.000000      0.000000      0.000000      0.000000      0.000000      0.000000      0.000000      0.000000      0.000000      0.000000      1.000000 'a_000211a'
    131.305847    128.490753     88.982819    -77.690163   -118.897812    167.706665    180.016846    141.964523    -53.097672    -85.423439    122.768013    146.542465    120.430611    -25.237461    -82.080292      0.000000      0.000000      0.000000      0.000000     78.226013   -744.444702     22.776657    123.271294     17.226601     62.680923      0.000000      0.000000     51.763660  -1723.172852     59.268162  -1968.299805      0.000000      0.000000      0.000000      0.000000      0.000000      0.000000      0.000000      0.000000      1.000000 'a_000212a'
    338.624054    451.645630    611.218628    581.000000    127.473991    247.109634    350.350800    460.671631    336.000000    -96.807991    103.983246    161.587250    227.715912    200.000000     -0.551942      9.570085    -34.399284      0.000000      0.000000      0.000000      0.000000      6.390200     70.440598     53.538734    991.937866     58.276054   2134.215820     56.581078  -1541.563843     21.899803   -391.270477     23.085239   -205.708832      0.000000      0.000000      0.000000      0.000000      0.000000      0.000000      1.000000 'a_000213a'
     -9.000000     24.000000    112.000000    227.770447    -13.492025    -83.000000    -58.000000    -14.000000     62.443432    -15.466924    -83.000000    -73.000000    -39.000000     45.710518     44.883503      0.000000      0.000000     20.077179   -113.214500     17.522699    -36.340527      7.466001     25.128687     26.290529    908.118286     34.477638   1275.663208     20.236300   -261.393494     37.547665  -1000.941467     35.999660   -606.478638     16.004564    128.163132      0.000000      0.000000      0.000000      0.000000      1.000000 'a_000215a'
     87.000000    117.110764    180.000000    178.483536     21.480635    122.000000    157.809631    185.000000     76.610672    -71.597939     83.000000    103.878563    102.000000    -25.402679   -122.424271     85.174713   -644.880676     88.000000   -935.127563     85.637978   -734.220032      0.000000      0.000000      0.000000      0.000000      0.000000      0.000000      0.000000      0.000000      0.000000      0.000000      0.000000      0.000000      0.000000      0.000000      0.000000      0.000000      0.000000      0.000000      1.000000 'a_000216a'
    175.000000    209.771759    239.307907    200.865097      6.530612    161.000000    219.462112    273.218811    245.592072     41.595768    122.000000    179.986572    234.306946    218.596634     39.441135     89.855637  -1150.229736      7.667848    -24.147203      0.000000      0.000000      0.000000      0.000000     10.484579    219.070541     30.035257    504.773224      0.000000      0.000000     66.735260  -1460.271240     67.964745  -1427.647705      0.000000      0.000000      0.000000      0.000000      0.000000      0.000000      1.000000 'a_000219a'
    188.306564    238.829803    258.000000     89.804070    -48.580898    221.181244    249.452560    175.000000    -98.486107   -150.335342    174.522858    169.890396     39.000000   -234.087006   -194.812149     88.341049  -1184.244141     86.948250  -1503.152344     89.361603  -1316.230835      0.000000      0.000000      0.000000      0.000000      0.000000      0.000000      0.000000      0.000000      0.000000      0.000000      0.000000      0.000000      0.000000      0.000000      0.000000      0.000000      0.000000      0.000000      1.000000 'a_000220a'
    147.069168    166.044662    198.191299    205.000000     70.346214    132.073334    149.999619    180.884247    180.000000     71.831047    136.942276    160.708542    197.450897    219.000000    119.931587     83.293694   -808.701355     73.774521   -971.303772      0.000000      0.000000      0.000000      0.000000      0.000000      0.000000     14.677775     21.836412      0.000000      0.000000      0.000000      0.000000     71.175583  -1102.694336      0.000000      0.000000      0.000000      0.000000      0.000000      0.000000      1.000000 'a_000221a'
     65.079697     96.972557    155.061737    321.674805    126.000000     83.314735    118.230072    159.073837    258.772308     97.000000     78.191444    109.632416    167.843719    278.173370    219.000000      0.000000      0.000000      0.000000      0.000000      0.000000      0.000000     29.506281    504.067047     42.266678    887.479370     53.203640   1173.251465     59.304024  -1502.905396     47.733322   -942.311584     33.268967   -550.419373      0.000000      0.000000      0.000000      0.000000      0.000000      0.000000      1.000000 'a_000222a'
     62.500061     94.405487    151.605209    119.449356     14.183527     47.497528     83.657127    134.736038     24.863207   -212.713638     45.677639     69.046654     64.079636   -168.040085   -404.719452      0.000000      0.000000      0.000000      0.000000     72.534752   -649.169250     25.203096     48.350773     27.574812     53.148552      0.000000      0.000000     56.740837   -363.558868     56.425190   -699.759827      0.000000      0.000000      0.000000      0.000000      0.000000      0.000000      0.000000      0.000000      1.000000 'a_000223a'
     77.521782     92.000000    102.000000    -81.444595   -340.557587     35.570065     48.000000     48.000000   -159.177795   -400.091980     -8.998178     -9.000000    -48.000000   -268.642151   -419.961090     85.589813  -1589.578857     88.000000  -1069.768677      0.000000      0.000000      0.000000      0.000000      0.000000      0.000000     22.277433     65.593842      0.000000      0.000000      0.000000      0.000000     54.554546   -414.348572      0.000000      0.000000      0.000000      0.000000      0.000000      0.000000      1.000000 'a_000226a'
    177.245712    221.760101    295.860016    134.741882   -136.000000    294.788818    329.317505    362.260773     90.717842   -219.000000    296.554077    317.548004    306.226776      9.577223   -258.000000      0.000000      0.000000      0.000000      0.000000      7.141663    -34.077827     11.457164     38.140079     11.249681     23.076412     25.327534    405.584717     57.952579  -1811.085327     54.181530  -1128.430176     20.286249   -443.397766      0.000000      0.000000      0.000000      0.000000      0.000000      0.000000      1.000000 'a_000228a'
     73.000000    111.516342    163.667343    227.731720    155.873383     68.000000    101.981285    153.367783    226.686111    160.378250     34.000000     57.050674     98.131210    158.678238    130.097168      0.000000      0.000000      0.000000      0.000000      0.000000      0.000000     21.920280     86.259148     24.845753    122.554909     34.695881    202.695206     62.079720  -1581.204956     59.154247  -1255.318481     47.577450   -976.360352      0.000000      0.000000      0.000000      0.000000      0.000000      0.000000      1.000000 'a_000230a'
    107.000000    136.000000    185.000000     94.293465   -353.939575     39.000000     68.000000     63.000000    -82.004829   -378.126526     34.000000     43.000000     48.000000     21.252880    -62.798637     80.664474  -1653.919067     86.651184   -453.373962     19.670210    -83.195038      0.000000      0.000000      0.000000      0.000000     49.295406    864.676880      0.000000      0.000000      0.000000      0.000000     18.936733    -78.191589      0.000000      0.000000      0.000000      0.000000      0.000000      0.000000      1.000000 'a_000231a'
    307.233978    361.000000    439.505646    392.582977    103.832504    170.634491    195.000000    224.328705    157.381134     -7.335340    102.050140    126.000000    160.187637    183.161652    121.101326     86.879784  -2248.475098      0.000000      0.000000      0.000000      0.000000      0.000000      0.000000     38.270870    367.278198     42.824169    878.492798      0.000000      0.000000     52.328842  -1353.944336     50.358311   -936.803528      0.000000      0.000000      0.000000      0.000000      0.000000      0.000000      1.000000 'a_000232a'
    151.614502    185.087555    223.807114     36.712273   -310.837708    117.588509    132.096130    136.348007    -59.315331   -304.858490     74.107864     82.983192     68.367249    -62.018688   -217.104477     89.466888  -1703.120850     92.000000  -1269.836914     23.571856    -43.765766      0.000000      0.000000      0.000000      0.000000      7.863095     34.234234      0.000000      0.000000      0.000000      0.000000     60.565048   -775.765747      0.000000      0.000000      0.000000      0.000000      0.000000      0.000000      1.000000 'a_000233a'
    122.586189    183.505814    297.000000    200.000000   -278.076843     68.032944     85.980232     68.000000   -239.000000   -641.575928    -14.477354    -23.895170   -122.000000   -517.000000   -908.439758     82.780563  -1174.888062     85.945679  -1205.748291      0.000000      0.000000      0.000000      0.000000      0.000000      0.000000     38.296902    379.846588      0.000000      0.000000      0.000000      0.000000     47.659138  -1045.181396      0.000000      0.000000      0.000000      0.000000      0.000000      0.000000      1.000000 'a_000235a'
     31.222668     83.000000    115.983704    153.275711    151.619629     62.561798    107.000000    179.215988    267.947693    184.254562     39.119686     63.000000    128.905960    240.994553    192.241486      0.000000      0.000000      0.000000      0.000000     46.734081   -472.849762     11.101158     28.167561     11.804124     35.964630     19.534203    339.598480     72.898842  -1109.847046     72.195877  -1411.527466      9.619248    -74.139420      0.000000      0.000000      0.000000      0.000000      0.000000      0.000000      1.000000 'a_000236a'
    228.662781    230.348602    146.000000     12.271060    -84.685997    217.286331    230.455399    122.000000    -17.631317   -113.750267    145.302429    144.611725     24.000000    -94.275375   -123.099266     71.736603  -1598.958130      0.000000      0.000000      0.000000      0.000000      0.000000      0.000000     33.161610     85.332664     40.006355    279.986542      0.000000      0.000000     47.842812  -1687.835083     44.679131  -1109.976196      0.000000      0.000000      0.000000      0.000000      0.000000      0.000000      1.000000 'a_000237a'
    375.000000    479.934113    641.893127    755.617798    436.823975    390.000000    479.672150    641.451477    757.320557    418.097382    336.000000    436.174591    576.582886    674.023926    425.778625     76.140923  -1769.912476     78.439323  -2113.760742      0.000000      0.000000      0.000000      0.000000      0.000000      0.000000     24.744589    140.859528      0.000000      0.000000      0.000000      0.000000     56.432835  -1367.628296      0.000000      0.000000      0.000000      0.000000      0.000000      0.000000      1.000000 'a_000238a'
    170.000000    256.864685    375.000000    297.189972     87.000000     48.000000     92.001083    156.000000    124.943794     58.000000     39.000000     65.515358     92.000000     73.495346     58.000000     92.227943  -2186.550537      0.000000      0.000000      0.000000      0.000000      0.000000      0.000000     13.077290    104.116646     21.514330    182.408508      0.000000      0.000000     78.416359  -1560.122803     70.650864  -1013.833130      0.000000      0.000000      0.000000      0.000000      0.000000      0.000000      1.000000 'a_000239a'
     73.495346     86.452606     78.842918    -43.464340   -155.618210     52.632404     78.527817     64.796005    -59.016945   -167.070175     26.492502     42.628456     62.907005     33.876991    -13.802030     63.439442  -1236.151489     53.557430   -640.177734      0.000000      0.000000      0.000000      0.000000      0.000000      0.000000     35.026855    263.078949      0.000000      0.000000      0.000000      0.000000     31.037199   -465.925720      0.000000      0.000000      0.000000      0.000000      0.000000      0.000000      1.000000 'a_000240a'
    200.989944    262.193390    400.715668    571.000000    372.963287    361.634766    455.391724    654.522705    854.000000    532.608093    410.738434    505.312744    661.083618    791.000000    458.704956     85.660217  -1722.876221      0.000000      0.000000      0.000000      0.000000      0.000000      0.000000     19.840502    100.495857     29.900505    204.130997      0.000000      0.000000     62.519264  -1691.700073     19.216858   -218.504364      0.000000      0.000000      0.000000      0.000000     46.882637    369.287476      1.000000 'a_000242a'
    280.949646    338.117950    384.761566    277.851318     18.514879    186.990814    232.720718    262.796082    171.308365     -5.478059    136.547256    172.331589    192.479416    122.927727    -20.281466     88.353065  -3000.996338     92.241425  -1663.239868     89.335655   -843.134155      0.000000      0.000000      0.000000      0.000000      0.000000      0.000000      0.000000      0.000000      0.000000      0.000000      0.000000      0.000000      0.000000      0.000000      0.000000      0.000000      0.000000      0.000000      1.000000 'a_000246a'
     87.000000    126.558220    122.613327     90.747932     67.921074     83.000000    151.494278    157.953629     91.821251     48.589733    112.000000    177.441025    193.734146    109.725990     59.383102     38.516140   -411.075623     46.595432   -375.707123     49.924683   -309.741364     16.848902     94.233734      0.000000      0.000000      0.000000      0.000000      0.000000      0.000000      0.000000      0.000000      0.000000      0.000000      0.000000      0.000000      0.000000      0.000000      0.000000      0.000000      1.000000 'a_000247a'
    112.025162    165.560883    288.422333     69.938736   -192.840622    102.441772    135.148651    171.002701   -176.775223   -383.271484     63.441544     68.009026     48.330704   -228.912445   -366.947083      0.000000      0.000000      0.000000      0.000000      0.000000      0.000000     20.150993    316.798096     19.566893    328.619690     48.784332    249.946167     59.022343  -1503.201904     57.427532   -875.115295     30.827448   -442.822632      0.000000      0.000000      0.000000      0.000000      0.000000      0.000000      1.000000 'a_000250a'
     45.927036     62.654861    112.657097    156.000000   -126.000000     53.182293     62.532944     87.460983    146.000000   -170.000000     19.028511     14.019961     19.128166      9.000000   -302.000000      0.000000      0.000000      0.000000      0.000000      0.000000      0.000000     29.698112    190.322708     32.890263    288.341919     55.389793    858.402039     62.301888  -1009.795593     59.109737   -957.626282     36.610207   -396.065704      0.000000      0.000000      0.000000      0.000000      0.000000      0.000000      1.000000 'a_000251a'
    114.501488    110.868530    137.774582    101.133904     -0.500909    103.234322     93.243973     78.527817    -73.115639   -212.361450      8.997454    -30.827827   -123.809074   -488.855225   -642.413208     86.016411  -1766.004639     15.722093    -24.072554     13.627305    -30.428053      0.000000      0.000000     12.331825    128.199448     24.007580    467.837067      0.000000      0.000000     66.962761  -1957.892090     60.365116  -1318.162964      0.000000      0.000000      0.000000      0.000000      0.000000      0.000000      1.000000 'a_000252a'
    248.367630    304.413849    326.777954    127.477150    -53.000000    145.914200    194.428818    213.645325    107.972855     29.000000    168.130997    220.887436    252.955521    154.242233      4.000000     47.441032   -521.381958     48.266930   -332.212158     48.546268   -261.976349     62.558968    569.052734     61.733070    570.787842     24.296043    120.079369      0.000000      0.000000      0.000000      0.000000      6.368287    -25.363638      0.000000      0.000000      0.000000      0.000000      0.000000      0.000000      1.000000 'a_000253a'
     97.555122    141.000000    238.804398    434.850494    432.707123     98.038445    136.000000    244.076614    421.770599    456.250763      9.024564     29.000000     82.124054    168.874695    197.964691     21.675039   -111.146080     19.643965   -111.074516     19.344912    -76.516357      4.787247     29.059866      5.400450     34.060616     30.256458    189.844818     72.923782   -858.146057     72.495911   -838.074524     54.398628   -415.543182      0.000000      0.000000      0.000000      0.000000      0.000000      0.000000      1.000000 'a_000254a'
     80.030861    114.750717    161.622925    263.000000    265.556793     52.791996     87.837662    135.444305    229.000000    209.027817     10.813266     28.820431     65.834068    117.000000     70.866768     90.000000  -1120.034424     23.510132   -137.928009      0.000000      0.000000      0.000000      0.000000      4.546039     28.626755     38.769470    244.745087      0.000000      0.000000     54.001381  -1286.584229     47.204735  -1338.355713      0.000000      0.000000      0.000000      0.000000      0.000000      0.000000      1.000000 'a_000255a'
    410.000000    502.000000    634.000000    639.000000    327.000000    468.000000    571.000000    688.000000    668.000000    336.000000    429.000000    537.000000    634.000000    595.000000    302.000000      0.000000      0.000000     71.818176  -1452.622803     69.193153   -646.417603      6.180588     20.401096      0.000000      0.000000      0.000000      0.000000     70.236969  -2118.853760      0.000000      0.000000      0.000000      0.000000      0.000000      0.000000      0.000000      0.000000      0.000000      0.000000      1.000000 'a_000256a'
      1.133632      4.129234      0.000000     -0.435928     63.490227    -19.906551    -25.117788    -29.000000    -24.825474     85.811485    -38.582062    -49.061153    -58.000000    -68.969406     50.988670     18.649719    -78.042557      9.997541    -38.682453      0.000000      0.000000     35.476860    526.957458     39.474895    999.144897     40.628391   1304.292358     25.150661   -278.979370     28.881908   -421.529602     29.638550   -441.707397      0.000000      0.000000      0.000000      0.000000      0.000000      0.000000      1.000000 'a_000257a'
    140.094315    175.000000    229.379654    231.994308     97.095291     58.212540     92.000000    122.613327    111.539139     26.397205     -3.856264      9.000000     28.557592     39.472290     21.107430     11.685040    -27.381706      0.000000      0.000000      0.000000      0.000000     14.551757    146.595947     25.012175    329.129242     35.286465    474.990723     52.476864   -763.633179     51.703979   -718.003540     46.659454   -825.209839      0.000000      0.000000      0.000000      0.000000      0.000000      0.000000      1.000000 'a_000258a'
    126.000000    177.482452    263.000000    416.648834    410.000000     92.000000    131.145874    190.000000    314.591858    292.000000     29.000000     84.207016    136.000000    224.565735    195.000000    106.878403  -3133.837891    104.230225  -2364.001709     28.603741   -360.803802      0.000000      0.000000      0.000000      0.000000     15.608150    209.493912      0.000000      0.000000      0.000000      0.000000     59.439873  -1670.439941      0.000000      0.000000      0.000000      0.000000      0.000000      0.000000      1.000000 'a_000260a'
    467.839264    625.000000    742.121582    561.026428    162.050308    634.430725    805.000000    912.654663    685.441956    216.700211    473.944458    566.000000    548.666748    327.689728     52.291969      0.000000      0.000000      0.000000      0.000000      0.000000      0.000000     23.939939    224.111633     25.804775    427.637421     27.059488    228.905441    100.756592  -1613.592285     99.217705  -1873.802979     81.201286   -930.463562      0.000000      0.000000      0.000000      0.000000      8.715888     44.796768      1.000000 'a_000261a'
    373.087921    419.287476    475.296722    523.485474    288.000000    230.313950    285.399689    331.031189    352.418732    200.000000    176.044250    209.170837    239.436829    239.194839    126.000000     66.219017  -2005.209961      0.000000      0.000000      0.000000      0.000000      0.000000      0.000000      6.118591     36.620117     27.628639    231.339157      0.000000      0.000000     46.826607  -1209.635132     35.456745   -401.174683      0.000000      0.000000      0.000000      0.000000      0.000000      0.000000      1.000000 'a_000265a'
    195.000000    156.000000   -131.000000   -674.934021   -431.025055    224.000000    190.000000   -102.000000   -692.949768   -459.748596    161.000000    151.000000    -53.000000   -525.961670   -351.448914     78.259796  -1415.401978     77.823730  -1163.084106     78.549957   -773.621704      0.000000      0.000000      0.000000      0.000000      0.000000      0.000000      0.000000      0.000000      0.000000      0.000000      0.000000      0.000000      0.000000      0.000000      0.000000      0.000000      0.000000      0.000000      1.000000 'a_000266a'
     63.000000     82.826508    148.253052    292.000000    287.742188     29.000000     47.943565    107.083626    278.000000    307.507629      9.000000     20.118801     48.236450    151.000000    186.631256      0.000000      0.000000      0.000000      0.000000      0.000000      0.000000     28.009275    366.415314     55.358414    843.738403     57.111679   1332.276367     51.097408   -547.065063     23.897583   -417.561676     22.512346   -225.425888      0.000000      0.000000      0.000000      0.000000      0.000000      0.000000      1.000000 'a_000270a'
    354.701080    488.000000    652.544983    766.280701    458.000000    227.545898    322.000000    434.284424    527.735596    322.000000    212.439499    297.000000    392.422821    455.206635    253.000000     80.007797  -1932.664795      0.000000      0.000000      0.000000      0.000000      0.000000      0.000000     14.175087     45.483875     18.736717     47.517357      0.000000      0.000000     68.226196  -1511.331787     63.480251  -1201.850464      0.000000      0.000000      0.000000      0.000000      0.000000      0.000000      1.000000 'a_000271a'
    204.372574    218.938034    225.792038    152.006241    -49.620026    199.373993    213.769272    174.785172     55.605495   -116.373093    169.841919    160.824936     81.243935   -117.095306   -288.825378     89.265907  -2331.622314      0.000000      0.000000      0.000000      0.000000      0.000000      0.000000     18.174013     31.468712     28.128086     71.454887      0.000000      0.000000     75.189362  -2096.176025     65.601593  -1023.516663      0.000000      0.000000      0.000000      0.000000      0.000000      0.000000      1.000000 'a_000273a'
    156.000000    173.020615    205.000000    228.223328     -0.855536    136.000000    158.591446    195.000000    219.017593     38.845245     92.000000    114.467606    131.000000    115.177582    -62.695557     72.551964  -1265.250244     69.784981   -976.659241     70.464050   -805.415649      0.000000      0.000000      0.000000      0.000000      0.000000      0.000000      0.000000      0.000000      0.000000      0.000000      0.000000      0.000000      0.000000      0.000000      0.000000      0.000000      0.000000      0.000000      1.000000 'a_000276a'
     93.616272    185.029388    463.000000    926.251831    728.880432     45.213795    104.376526    297.000000    640.256653    568.303101     -1.953459     30.708612    131.000000    321.095642    300.740021      0.000000      0.000000      0.000000      0.000000      0.000000      0.000000     53.715378    975.184692     64.520355   1116.238037     66.502991   1078.123779     62.264919  -2058.881836     53.479649  -1496.002563     51.497005   -912.876221      0.000000      0.000000      0.000000      0.000000      0.000000      0.000000      1.000000 'a_000277a'
    126.000000    224.000000    374.930542    267.001129      3.070340     -4.000000     24.000000     62.952599     15.634703    -70.756180    -68.000000    -73.000000    -79.135605    -99.205956   -135.170029      0.000000      0.000000      0.000000      0.000000      0.000000      0.000000     21.201313    210.518784     21.084858    139.645248     75.799408    956.075684     66.383675  -1424.565430     31.975685   -182.093475     18.200590   -157.424515      0.000000      0.000000     18.407909    461.141785      0.000000      0.000000      1.000000 'a_000278a'
    136.511414    141.000000    133.489334     65.792747    -24.598589    125.283737    131.000000    126.884583     61.486027    -25.376181    115.901009    122.000000    126.954147     93.308784     22.866243     59.224949   -620.031555     56.806580   -290.678619     20.076513    -53.137627     64.775055    697.968445     41.469170    439.076385     25.463621     92.137543      0.000000      0.000000      7.888477    -22.524506     11.605522    -52.065102      0.000000      0.000000     17.835773     95.995956     28.777899    152.237335      1.000000 'a_000279a'
     53.000000     73.000000    112.000000    180.000000    161.000000     29.000000     43.000000     87.000000    170.000000    170.000000     19.000000     34.000000     78.000000    151.000000    156.000000     80.000000   -971.026855     54.904037   -366.020386      0.000000      0.000000      0.000000      0.000000      0.000000      0.000000     55.940090    293.221802      0.000000      0.000000      0.000000      0.000000     24.059908   -199.403000      0.000000      0.000000      0.000000      0.000000      0.000000      0.000000      1.000000 'a_000005a'
    200.000000    272.170013    375.447662    524.045837    551.885925    126.000000    183.908875    265.627594    335.038879    287.877411    -43.000000    -18.960737     -3.544890     -8.411863    -63.750347     14.190892    -96.069939     12.312900    -59.680233      9.672124    -25.472811      5.310637     89.713379      6.871812    102.138283     48.016712   1160.527222     56.094894  -3502.369629     58.345490  -2356.966553     23.007772   -429.503906      0.000000      0.000000      0.000000      0.000000      0.000000      0.000000      1.000000 'a_000007a'
    234.607315    277.518341    346.000000    400.318970    320.455566    162.366928    184.784653    229.000000    252.971939    215.586075     63.086365     78.090332     83.000000     68.990257     23.975435     17.410461    -73.292488      0.000000      0.000000      0.000000      0.000000     18.506229    560.439514     34.701504    440.826691     46.769260    379.440338     76.278839  -1806.451050     75.470879  -1123.140015     67.827339   -671.597778      0.000000      0.000000      0.000000      0.000000      0.000000      0.000000      1.000000 'a_000009a'
     52.777016     68.000000    108.531326    184.894363    122.000000     -8.975381    -14.000000     -5.522415     84.290161    151.000000    -63.221443    -92.000000    -91.911026     15.330149    151.000000      0.000000      0.000000      0.000000      0.000000      0.000000      0.000000     11.719668    218.534271     32.631065    430.543152     51.915043   1065.245850     71.246101  -1126.893799     51.368935   -625.720337     32.084957   -310.092438      0.000000      0.000000      0.000000      0.000000      0.000000      0.000000      1.000000 'a_000012a'
     82.410797    112.000000    170.000000    173.637466      2.224574    112.546349    151.000000    214.000000    179.454239    -68.617447    101.975357    146.000000    166.000000    -31.388258   -312.130798      0.000000      0.000000      0.000000      0.000000      0.000000      0.000000     20.268381     52.279373     19.866117     51.585373     54.754356    497.228271     69.731621  -1087.908081     70.133881  -1221.203613     35.245644   -328.619171      0.000000      0.000000      0.000000      0.000000      0.000000      0.000000      1.000000 'a_000016a'
    219.000000    304.242859    493.000000    802.403076    611.135376    195.000000    279.946838    419.000000    617.887207    388.609894    156.000000    221.627838    302.000000    369.638672    136.066910     74.482994  -2492.216797      0.000000      0.000000      0.000000      0.000000      0.000000      0.000000     14.573963    223.881546     15.116122    174.689865      0.000000      0.000000     63.704063  -2813.608887     67.593498  -2415.640381      0.000000      0.000000      0.000000      0.000000      0.000000      0.000000      1.000000 'a_000018a'
    103.208122    145.958694    234.000000    304.837341     23.593601     65.030205     91.424080     92.000000    -53.871819   -269.353516     65.338669     91.260681     92.000000    -59.283527   -274.515503     12.613995    -21.452547      0.000000      0.000000      0.000000      0.000000     12.509441    122.930115     19.605745     70.521439     21.606062     79.878212     69.840248   -900.496338     74.652763  -1360.293579     74.366997  -1358.202148      0.000000      0.000000      0.000000      0.000000      0.000000      0.000000      1.000000 'a_000019a'
    171.867416    214.438354    239.498245    152.600906     83.000000    145.958694    180.015335    139.266846     26.694786    -29.000000     68.144165     72.421700     12.407346    -92.712914    -97.000000    101.870842  -1722.840332    107.802406  -1165.362793      0.000000      0.000000      0.000000      0.000000      0.000000      0.000000     31.107800     99.906227      0.000000      0.000000      0.000000      0.000000     76.892204   -536.016602      0.000000      0.000000      0.000000      0.000000      0.000000      0.000000      1.000000 'a_000020a'
     56.883812     83.000000     94.636665    -25.304958   -268.682983     27.892017     39.000000     39.737350    -80.704147   -258.443237      3.133317     14.000000     23.443321     -7.092726   -122.468369     66.601135   -726.334839     39.641655   -212.132248     22.570013   -115.056168      0.000000      0.000000     33.755432    160.263580     42.880985    516.233826      0.000000      0.000000      0.000000      0.000000      0.000000      0.000000      0.000000      0.000000      0.000000      0.000000      0.000000      0.000000      1.000000 'a_000021a'
    244.645462    310.232056    196.131760    -53.000000   -151.000000    291.127991    268.419159     13.209340   -253.000000   -244.000000    218.638336    171.576370    -74.935104   -278.000000   -209.000000      0.000000      0.000000      0.000000      0.000000     97.611328  -1016.822510     13.625475    111.998436     10.473102     23.941744      0.000000      0.000000     82.374146  -1857.191528     85.113686  -1603.297485      0.000000      0.000000      0.000000      0.000000      0.000000      0.000000      0.000000      0.000000      1.000000 'a_000027a'
     86.416641    100.912842    131.000000     58.000000   -219.959442     77.771957     87.995903     97.000000    -29.000000   -316.217621     58.343433     68.009026     78.000000     -9.000000   -228.246155     90.230057  -1499.233887     96.977188  -1144.921143     98.000000   -606.408569      0.000000      0.000000      0.000000      0.000000      0.000000      0.000000      0.000000      0.000000      0.000000      0.000000      0.000000      0.000000      0.000000      0.000000      0.000000      0.000000      0.000000      0.000000      1.000000 'a_000031a'
     73.246803    117.000000    233.594330    332.124390    146.000000     83.659935    151.000000    313.494568    494.870300    317.000000     18.646038     68.000000    186.653229    373.739288    302.000000      0.000000      0.000000      0.000000      0.000000      0.000000      0.000000     20.896584     52.823814     27.819914    230.140320     56.008583    518.164185     94.853294  -1495.371582     92.180084  -1169.622559     63.991417   -792.531738      0.000000      0.000000      0.000000      0.000000      0.000000      0.000000      1.000000 'a_000033a'
    170.000000    257.273926    380.000000    278.512939      4.000000     68.000000    124.162201    166.000000     -0.318713   -122.000000    -19.000000     -6.143041    -19.000000   -109.692108   -102.000000     11.091650   -107.548569      0.000000      0.000000      0.000000      0.000000     11.205143    325.290924     42.250240    627.860291     48.114849    797.906006     62.087112  -2497.213867     55.749760  -2035.365234     49.885151  -1220.232666      0.000000      0.000000      0.000000      0.000000      0.000000      0.000000      1.000000 'a_000034a'
     70.316650     77.817047     41.229908   -308.118652   -491.567780     37.999165     62.655373      6.629012   -335.022003   -519.593506     -0.439911      8.834052    -31.032066   -223.362015   -326.206696     88.000000  -1411.202148     36.199860   -275.450256     25.234657   -237.780823      0.000000      0.000000      8.919569    155.632690     24.339029   1202.353760      0.000000      0.000000     42.880569  -1088.367310     38.426315   -699.998108      0.000000      0.000000      0.000000      0.000000      0.000000      0.000000      1.000000 'a_000037a'
     62.568577     96.225555    254.057373    465.718597    224.000000     87.509132    143.832977    298.244385    599.933411    434.000000     57.501476     97.897552    172.653748    359.819031    366.000000      0.000000      0.000000      0.000000      0.000000      0.000000      0.000000     12.160346     42.926159     28.594538    140.656525     51.391739    706.722168     75.807243  -1626.180786     59.405460  -1372.378662     35.568783   -509.708099      0.000000      0.000000      0.000000      0.000000      0.000000      0.000000      1.000000 'a_000039a'
    151.778900    150.957275    180.044693    245.689453    200.000000     19.138929    -13.798750    -29.412170     11.562014     78.000000   -129.312912   -169.909698   -194.496597   -149.296356     14.000000      0.000000      0.000000      0.000000      0.000000     23.182341    -32.387424     17.075785    102.032310     18.071808     35.595890     71.922630   1391.773926     69.716766  -2255.149414     39.525677   -739.739197      0.000000      0.000000      0.000000      0.000000     42.402515    178.795822      0.000000      0.000000      1.000000 'a_000040a'
    189.430237    257.925781    343.747101    180.422623    -63.041859    150.957275    194.491776    244.317444    111.975090    -54.945068     93.726082    114.727058    115.024269    -20.439962    -82.407089     79.431633  -1942.585449     80.285706  -1108.004639     83.230659   -750.987671      0.000000      0.000000      0.000000      0.000000      0.000000      0.000000      0.000000      0.000000      0.000000      0.000000      0.000000      0.000000      0.000000      0.000000      0.000000      0.000000      0.000000      0.000000      1.000000 'a_000043a'
    121.263298    150.534836    122.000000   -124.510117   -205.731461     67.680519    106.747200     73.000000   -134.587952   -210.756332     47.946629     82.515717     68.000000    -76.664139   -148.486542     67.067223  -1061.671875     55.052849   -457.622986     37.535320   -222.385178     12.932777     88.018341     24.947151    233.184616     42.464680    230.614822      0.000000      0.000000      0.000000      0.000000      0.000000      0.000000      0.000000      0.000000      0.000000      0.000000      0.000000      0.000000      1.000000 'a_000046a'
     69.198738    118.828987    205.000000    303.993469    184.842728     58.648365    109.312393    185.000000    239.930389     93.105377     62.874847    112.524979    180.000000    228.790070     88.385818     73.569427  -1250.157227     22.384106    -55.033566     20.661158    -78.650658      0.000000      0.000000     12.487596     53.847294     29.059538    683.564026      0.000000      0.000000     53.128300  -1275.766357     38.279305  -1220.097046      0.000000      0.000000      0.000000      0.000000      0.000000      0.000000      1.000000 'a_000055a'
      9.330558      9.000000     75.186005    308.574310    346.000000     39.054207     83.000000    162.390472    360.019592    458.000000    -28.911921      0.000000     54.663136    183.493423    268.000000      0.000000      0.000000      0.000000      0.000000     20.650330    -97.247971     58.360535   1164.230835     50.709740   2530.409912     43.506901   2687.259521     22.259127   -647.892395     14.551269   -478.320709     17.842768   -371.063995      0.000000      0.000000      0.000000      0.000000      0.000000      0.000000      1.000000 'a_000058a'
     72.837410    104.917084    153.258545   -200.560059   -191.553055     46.867630     59.394638     40.046768   -521.411621   -451.495880     -9.128222    -48.143272   -187.577209   -786.762573   -598.625000      0.000000      0.000000      0.000000      0.000000      0.000000      0.000000     23.654127    299.808533     32.468239    296.581451     50.785744   1420.453857     54.345875  -1277.974487     45.531761   -860.879822     27.214256   -236.416794      0.000000      0.000000      0.000000      0.000000      0.000000      0.000000      1.000000 'a_000060a'
    -21.330515    -19.000000    -21.827497   -156.000000   -208.846863    -80.416229    -83.000000    -96.421455   -219.000000   -233.462341    -72.782059    -83.000000    -91.777992   -161.000000   -156.954437     17.743265    -52.341877      0.000000      0.000000      0.000000      0.000000     28.785091    265.934113     37.044754    625.118469     46.374027    901.047668     53.471642  -1053.341919     53.492138  -1219.881592     53.625973   -868.973572      0.000000      0.000000      0.000000      0.000000      0.000000      0.000000      1.000000 'a_000062a'
     87.000000    156.317764    302.000000    434.514893    211.799271     39.000000     94.432594    200.000000    316.935822    193.027115      9.000000     38.712456    102.000000    140.803391      6.442593      0.000000      0.000000      0.000000      0.000000     12.678456    -45.375072     19.132002     43.052986     19.093451     77.663818     32.533325    490.788025     54.867996  -1572.947021     50.468143   -905.417236     25.549414   -467.409180      0.000000      0.000000      0.000000      0.000000      0.000000      0.000000      1.000000 'a_000064a'
    239.000000    309.120819    351.000000    326.125641    190.000000    224.000000    346.703918    449.000000    452.066010    307.000000    112.000000    203.858368    322.000000    374.851685    302.000000      0.000000      0.000000      0.000000      0.000000      0.000000      0.000000     14.419967     83.315979     24.791830    284.057922     40.187656    678.054993     85.689819  -2406.684082     79.200974  -2434.942139     72.266327  -1941.772461      0.000000      0.000000      0.000000      0.000000      0.000000      0.000000      1.000000 'a_000069a'
    122.000000    135.840454    150.811523    156.376236     55.736217    170.000000    209.095474    237.959000    246.368515    123.251625    131.000000    166.578995    184.856415    161.186829     50.104576     77.166931  -1415.770386     77.532524  -2019.359497      0.000000      0.000000      0.000000      0.000000      0.000000      0.000000     11.514626     31.760855      0.000000      0.000000      0.000000      0.000000     67.751259  -1739.192627      0.000000      0.000000      0.000000      0.000000      0.000000      0.000000      1.000000 'a_000071a'
    172.861588    229.666931    322.000000    313.350220     60.538208    209.099701    269.744568    327.000000    251.579285     17.739599    182.758270    229.915970    253.000000    141.591736    -29.264036     81.593834  -1728.193359     83.214890  -1752.064697     84.409988  -1109.369629      0.000000      0.000000      0.000000      0.000000      0.000000      0.000000      0.000000      0.000000      0.000000      0.000000      0.000000      0.000000      0.000000      0.000000      0.000000      0.000000      0.000000      0.000000      1.000000 'a_000074a'
    262.059631    298.247589    350.995575    322.978638    136.941345    415.418243    495.516724    635.317871    629.865479    332.393250    350.395721    414.689301    477.049072    424.063080    182.079529     75.897354  -1985.642334     83.286285  -2724.301270     84.088226  -1627.023071      0.000000      0.000000      0.000000      0.000000      0.000000      0.000000      0.000000      0.000000      0.000000      0.000000      0.000000      0.000000      0.000000      0.000000      0.000000      0.000000      0.000000      0.000000      1.000000 'a_000075a'
